0 0.151
0.0005 0.1536
0.001 0.1526
0.0015 0.1504
0.002 0.1504
0.0025 0.151
0.003 0.1513
0.0035 0.1516
0.004 0.1507
0.0045 0.152
0.005 0.1526
0.0055 0.152
0.006 0.1529
0.0065 0.1536
0.007 0.1533
0.0075 0.152
0.008 0.151
0.0085 0.1504
0.009 0.152
0.0095 0.1523
0.01 0.1536
0.0105 0.1533
0.011 0.1504
0.0115 0.1475
0.012 0.1465
0.0125 0.1458
0.013 0.1449
0.0135 0.1423
0.014 0.141
0.0145 0.1429
0.015 0.1452
0.0155 0.1458
0.016 0.1458
0.0165 0.1471
0.017 0.1484
0.0175 0.1484
0.018 0.1465
0.0185 0.1468
0.019 0.1481
0.0195 0.1487
0.02 0.1484
0.0205 0.1484
0.021 0.1487
0.0215 0.1478
0.022 0.1484
0.0225 0.1487
0.023 0.1497
0.0235 0.1516
0.024 0.152
0.0245 0.15
0.025 0.15
0.0255 0.1513
0.026 0.1536
0.0265 0.1526
0.027 0.151
0.0275 0.1497
0.028 0.1491
0.0285 0.1484
0.029 0.1468
0.0295 0.1468
0.03 0.1481
0.0305 0.1497
0.031 0.1494
0.0315 0.1468
0.032 0.1462
0.0325 0.1465
0.033 0.1481
0.0335 0.1497
0.034 0.1504
0.0345 0.1504
0.035 0.151
0.0355 0.151
0.036 0.1513
0.0365 0.1526
0.037 0.1526
0.0375 0.1529
0.038 0.1504
0.0385 0.1484
0.039 0.1478
0.0395 0.1484
0.04 0.15
0.0405 0.1504
0.041 0.15
0.0415 0.1484
0.042 0.1468
0.0425 0.1462
0.043 0.1478
0.0435 0.1491
0.044 0.152
0.0445 0.152
0.045 0.1491
0.0455 0.1475
0.046 0.1481
0.0465 0.1484
0.047 0.1481
0.0475 0.1465
0.048 0.1465
0.0485 0.1487
0.049 0.15
0.0495 0.151
0.05 0.1526
0.0505 0.1523
0.051 0.1523
0.0515 0.151
0.052 0.151
0.0525 0.1494
0.053 0.1468
0.0535 0.1471
0.054 0.1468
0.0545 0.1478
0.055 0.1478
0.0555 0.1484
0.056 0.1487
0.0565 0.1484
0.057 0.1471
0.0575 0.1468
0.058 0.1458
0.0585 0.1462
0.059 0.1478
0.0595 0.1465
0.06 0.1462
0.0605 0.1455
0.061 0.1471
0.0615 0.1494
0.062 0.15
0.0625 0.1504
0.063 0.1475
0.0635 0.1458
0.064 0.1471
0.0645 0.1487
0.065 0.1491
0.0655 0.1487
0.066 0.1507
0.0665 0.1497
0.067 0.1494
0.0675 0.1491
0.068 0.1497
0.0685 0.1484
0.069 0.1491
0.0695 0.1529
0.07 0.1552
0.0705 0.1568
0.071 0.1578
0.0715 0.1565
0.072 0.1542
0.0725 0.1526
0.073 0.1516
0.0735 0.1507
0.074 0.15
0.0745 0.1484
0.075 0.1475
0.0755 0.1462
0.076 0.1475
0.0765 0.1475
0.077 0.1462
0.0775 0.1468
0.078 0.1478
0.0785 0.1465
0.079 0.1465
0.0795 0.1491
0.08 0.1497
0.0805 0.1478
0.081 0.1455
0.0815 0.1458
0.082 0.1475
0.0825 0.1481
0.083 0.1471
0.0835 0.1458
0.084 0.1452
0.0845 0.1449
0.085 0.1452
0.0855 0.1465
0.086 0.1475
0.0865 0.1465
0.087 0.1449
0.0875 0.1458
0.088 0.1494
0.0885 0.1504
0.089 0.1494
0.0895 0.1497
0.09 0.1494
0.0905 0.15
0.091 0.151
0.0915 0.151
0.092 0.1494
0.0925 0.1497
0.093 0.1507
0.0935 0.151
0.094 0.1513
0.0945 0.152
0.095 0.1529
0.0955 0.152
0.096 0.1504
0.0965 0.1491
0.097 0.1478
0.0975 0.1481
0.098 0.1484
0.0985 0.1494
0.099 0.1481
0.0995 0.1475
0.1 0.1452
0.1005 0.1452
0.101 0.1471
0.1015 0.1497
0.102 0.1507
0.1025 0.1507
0.103 0.1497
0.1035 0.1491
0.104 0.15
0.1045 0.1484
0.105 0.1484
0.1055 0.1478
0.106 0.1487
0.1065 0.1497
0.107 0.1494
0.1075 0.1475
0.108 0.1475
0.1085 0.1465
0.109 0.1455
0.1095 0.1449
0.11 0.1465
0.1105 0.1475
0.111 0.1491
0.1115 0.1484
0.112 0.1478
0.1125 0.1484
0.113 0.15
0.1135 0.1507
0.114 0.1497
0.1145 0.1513
0.115 0.1507
0.1155 0.151
0.116 0.1516
0.1165 0.1497
0.117 0.1481
0.1175 0.1478
0.118 0.1475
0.1185 0.1478
0.119 0.1487
0.1195 0.1481
0.12 0.1468
0.1205 0.1481
0.121 0.1484
0.1215 0.1465
0.122 0.1452
0.1225 0.1478
0.123 0.1497
0.1235 0.1491
0.124 0.1475
0.1245 0.1475
0.125 0.1481
0.1255 0.1487
0.126 0.1497
0.1265 0.15
0.127 0.151
0.1275 0.1523
0.128 0.1516
0.1285 0.1516
0.129 0.152
0.1295 0.1526
0.13 0.1513
0.1305 0.1497
0.131 0.1497
0.1315 0.1484
0.132 0.1497
0.1325 0.151
0.133 0.15
0.1335 0.1481
0.134 0.1475
0.1345 0.1494
0.135 0.15
0.1355 0.1497
0.136 0.1487
0.1365 0.1478
0.137 0.1446
0.1375 0.1426
0.138 0.1429
0.1385 0.1442
0.139 0.1455
0.1395 0.1462
0.14 0.1458
0.1405 0.1471
0.141 0.15
0.1415 0.1504
0.142 0.1478
0.1425 0.1462
0.143 0.1471
0.1435 0.1487
0.144 0.1513
0.1445 0.1523
0.145 0.1523
0.1455 0.1513
0.146 0.1516
0.1465 0.1523
0.147 0.1526
0.1475 0.1526
0.148 0.1516
0.1485 0.1513
0.149 0.151
0.1495 0.1529
0.15 0.1536
0.1505 0.1513
0.151 0.1516
0.1515 0.1507
0.152 0.1504
0.1525 0.1504
0.153 0.1513
0.1535 0.1497
0.154 0.1462
0.1545 0.142
0.155 0.142
0.1555 0.1442
0.156 0.1458
0.1565 0.1458
0.157 0.1468
0.1575 0.1484
0.158 0.1484
0.1585 0.1478
0.159 0.1468
0.1595 0.1475
0.16 0.1478
0.1605 0.1487
0.161 0.1494
0.1615 0.1475
0.162 0.1465
0.1625 0.1455
0.163 0.1458
0.1635 0.1468
0.164 0.1468
0.1645 0.1455
0.165 0.1455
0.1655 0.1471
0.166 0.1481
0.1665 0.1487
0.167 0.1478
0.1675 0.1475
0.168 0.1468
0.1685 0.1478
0.169 0.1494
0.1695 0.1491
0.17 0.1497
0.1705 0.15
0.171 0.1475
0.1715 0.1475
0.172 0.1484
0.1725 0.15
0.173 0.1507
0.1735 0.1497
0.174 0.1497
0.1745 0.1507
0.175 0.15
0.1755 0.1523
0.176 0.1526
0.1765 0.1513
0.177 0.151
0.1775 0.1513
0.178 0.1529
0.1785 0.1526
0.179 0.15
0.1795 0.1491
0.18 0.15
0.1805 0.152
0.181 0.15
0.1815 0.1484
0.182 0.1478
0.1825 0.1471
0.183 0.1468
0.1835 0.1478
0.184 0.1494
0.1845 0.1497
0.185 0.1497
0.1855 0.1497
0.186 0.1481
0.1865 0.1468
0.187 0.1462
0.1875 0.1465
0.188 0.1478
0.1885 0.15
0.189 0.151
0.1895 0.1516
0.19 0.1516
0.1905 0.1507
0.191 0.1491
0.1915 0.1504
0.192 0.1507
0.1925 0.1507
0.193 0.151
0.1935 0.1513
0.194 0.151
0.1945 0.1494
0.195 0.1484
0.1955 0.1487
0.196 0.1497
0.1965 0.1491
0.197 0.1484
0.1975 0.1471
0.198 0.1468
0.1985 0.1465
0.199 0.1439
0.1995 0.1442
0.2 0.1455
0.2005 0.1465
0.201 0.1462
0.2015 0.1455
0.202 0.1446
0.2025 0.1446
0.203 0.1452
0.2035 0.1452
0.204 0.1452
0.2045 0.1446
0.205 0.1455
0.2055 0.1462
0.206 0.1468
0.2065 0.1475
0.207 0.1458
0.2075 0.1475
0.208 0.1484
0.2085 0.1494
0.209 0.1491
0.2095 0.1497
0.21 0.1494
0.2105 0.15
0.211 0.1504
0.2115 0.1491
0.212 0.1487
0.2125 0.1497
0.213 0.152
0.2135 0.1533
0.214 0.1529
0.2145 0.1526
0.215 0.1516
0.2155 0.1507
0.216 0.15
0.2165 0.15
0.217 0.1513
0.2175 0.1504
0.218 0.1497
0.2185 0.1507
0.219 0.1523
0.2195 0.1533
0.22 0.1542
0.2205 0.152
0.221 0.151
0.2215 0.151
0.222 0.1507
0.2225 0.1487
0.223 0.1494
0.2235 0.1504
0.224 0.1513
0.2245 0.152
0.225 0.1513
0.2255 0.1497
0.226 0.1487
0.2265 0.1475
0.227 0.1478
0.2275 0.1497
0.228 0.15
0.2285 0.1478
0.229 0.1458
0.2295 0.1449
0.23 0.1458
0.2305 0.1465
0.231 0.1465
0.2315 0.1481
0.232 0.1478
0.2325 0.1491
0.233 0.151
0.2335 0.152
0.234 0.1507
0.2345 0.1504
0.235 0.1504
0.2355 0.1487
0.236 0.1475
0.2365 0.1468
0.237 0.1475
0.2375 0.1484
0.238 0.1475
0.2385 0.1481
0.239 0.1494
0.2395 0.1504
0.24 0.151
0.2405 0.151
0.241 0.1494
0.2415 0.1491
0.242 0.1481
0.2425 0.1475
0.243 0.1491
0.2435 0.1491
0.244 0.1465
0.2445 0.1458
0.245 0.1478
0.2455 0.1484
0.246 0.15
0.2465 0.1516
0.247 0.1513
0.2475 0.1507
0.248 0.15
0.2485 0.1516
0.249 0.1513
0.2495 0.151
0.25 0.1513
0.2505 0.1504
0.251 0.151
0.2515 0.1494
0.252 0.1468
0.2525 0.1442
0.253 0.1462
0.2535 0.1471
0.254 0.1452
0.2545 0.1433
0.255 0.1433
0.2555 0.1452
0.256 0.1471
0.2565 0.1484
0.257 0.15
0.2575 0.151
0.258 0.1526
0.2585 0.1533
0.259 0.1539
0.2595 0.1513
0.26 0.1507
0.2605 0.1497
0.261 0.1491
0.2615 0.1497
0.262 0.1491
0.2625 0.1487
0.263 0.1484
0.2635 0.1491
0.264 0.1497
0.2645 0.1504
0.265 0.1491
0.2655 0.1491
0.266 0.1481
0.2665 0.1481
0.267 0.1487
0.2675 0.1497
0.268 0.1491
0.2685 0.1471
0.269 0.1452
0.2695 0.1449
0.27 0.1468
0.2705 0.1484
0.271 0.1478
0.2715 0.1478
0.272 0.1471
0.2725 0.1455
0.273 0.1442
0.2735 0.1449
0.274 0.1465
0.2745 0.1487
0.275 0.1494
0.2755 0.15
0.276 0.151
0.2765 0.152
0.277 0.1516
0.2775 0.1504
0.278 0.1513
0.2785 0.1533
0.279 0.1536
0.2795 0.1523
0.28 0.15
0.2805 0.1507
0.281 0.1523
0.2815 0.152
0.282 0.1516
0.2825 0.1523
0.283 0.1516
0.2835 0.1523
0.284 0.1513
0.2845 0.1497
0.285 0.1487
0.2855 0.1484
0.286 0.1478
0.2865 0.1468
0.287 0.1475
0.2875 0.1484
0.288 0.1487
0.2885 0.1478
0.289 0.1465
0.2895 0.1465
0.29 0.1478
0.2905 0.1481
0.291 0.1484
0.2915 0.1478
0.292 0.1475
0.2925 0.1484
0.293 0.1475
0.2935 0.1478
0.294 0.1481
0.2945 0.15
0.295 0.151
0.2955 0.1497
0.296 0.1494
0.2965 0.1504
0.297 0.152
0.2975 0.1533
0.298 0.1526
0.2985 0.1526
0.299 0.1523
0.2995 0.1497
0.3 0.1478
0.3005 0.1462
0.301 0.1442
0.3015 0.1446
0.302 0.1458
0.3025 0.1449
0.303 0.1433
0.3035 0.1439
0.304 0.1458
0.3045 0.1468
0.305 0.1484
0.3055 0.1497
0.306 0.15
0.3065 0.1497
0.307 0.1481
0.3075 0.1491
0.308 0.1523
0.3085 0.1542
0.309 0.1533
0.3095 0.1513
0.31 0.1516
0.3105 0.151
0.311 0.1497
0.3115 0.1494
0.312 0.1504
0.3125 0.1507
0.313 0.1523
0.3135 0.1526
0.314 0.15
0.3145 0.15
0.315 0.151
0.3155 0.1516
0.316 0.1513
0.3165 0.1484
0.317 0.1471
0.3175 0.1449
0.318 0.1433
0.3185 0.1439
0.319 0.1446
0.3195 0.1465
0.32 0.1484
0.3205 0.1494
0.321 0.1491
0.3215 0.1484
0.322 0.1468
0.3225 0.1468
0.323 0.1471
0.3235 0.1468
0.324 0.1475
0.3245 0.1484
0.325 0.1487
0.3255 0.1494
0.326 0.152
0.3265 0.1529
0.327 0.1513
0.3275 0.1491
0.328 0.1494
0.3285 0.1504
0.329 0.1484
0.3295 0.1484
0.33 0.1494
0.3305 0.1484
0.331 0.1484
0.3315 0.1487
0.332 0.1481
0.3325 0.1487
0.333 0.1471
0.3335 0.1465
0.334 0.1484
0.3345 0.1487
0.335 0.15
0.3355 0.1491
0.336 0.1478
0.3365 0.1458
0.337 0.1446
0.3375 0.1462
0.338 0.1478
0.3385 0.1491
0.339 0.15
0.3395 0.1513
0.34 0.1523
0.3405 0.1529
0.341 0.1533
0.3415 0.1523
0.342 0.1504
0.3425 0.1507
0.343 0.1513
0.3435 0.151
0.344 0.151
0.3445 0.151
0.345 0.1526
0.3455 0.1545
0.346 0.1542
0.3465 0.1523
0.347 0.1516
0.3475 0.151
0.348 0.1507
0.3485 0.1507
0.349 0.1487
0.3495 0.1481
0.35 0.1494
0.3505 0.15
0.351 0.1478
0.3515 0.1458
0.352 0.1468
0.3525 0.1465
0.353 0.1458
0.3535 0.1449
0.354 0.1452
0.3545 0.1481
0.355 0.1507
0.3555 0.152
0.356 0.1516
0.3565 0.1513
0.357 0.1507
0.3575 0.1491
0.358 0.1484
0.3585 0.1487
0.359 0.1494
0.3595 0.1504
0.36 0.1494
0.3605 0.1504
0.361 0.1504
0.3615 0.1504
0.362 0.15
0.3625 0.1497
0.363 0.1491
0.3635 0.1484
0.364 0.1475
0.3645 0.1494
0.365 0.1507
0.3655 0.1487
0.366 0.1478
0.3665 0.1484
0.367 0.1507
0.3675 0.151
0.368 0.151
0.3685 0.1497
0.369 0.1481
0.3695 0.1471
0.37 0.1481
0.3705 0.1491
0.371 0.1491
0.3715 0.1487
0.372 0.1484
0.3725 0.1478
0.373 0.1484
0.3735 0.1487
0.374 0.15
0.3745 0.1497
0.375 0.1484
0.3755 0.1471
0.376 0.1478
0.3765 0.1484
0.377 0.1478
0.3775 0.1478
0.378 0.1484
0.3785 0.1497
0.379 0.1497
0.3795 0.1491
0.38 0.1484
0.3805 0.1494
0.381 0.151
0.3815 0.1516
0.382 0.1497
0.3825 0.1484
0.383 0.1481
0.3835 0.1468
0.384 0.1458
0.3845 0.1458
0.385 0.1471
0.3855 0.1491
0.386 0.1487
0.3865 0.1504
0.387 0.1507
0.3875 0.151
0.388 0.151
0.3885 0.1484
0.389 0.1475
0.3895 0.1478
0.39 0.1475
0.3905 0.1478
0.391 0.1468
0.3915 0.1468
0.392 0.1481
0.3925 0.1491
0.393 0.1507
0.3935 0.1507
0.394 0.1504
0.3945 0.151
0.395 0.152
0.3955 0.1536
0.396 0.1539
0.3965 0.1545
0.397 0.1558
0.3975 0.1533
0.398 0.152
0.3985 0.1516
0.399 0.1523
0.3995 0.1513
0.4 0.1504
0.4005 0.1491
0.401 0.1468
0.4015 0.1481
0.402 0.1497
0.4025 0.1478
0.403 0.1458
0.4035 0.1462
0.404 0.1462
0.4045 0.1449
0.405 0.1455
0.4055 0.1458
0.406 0.1458
0.4065 0.1433
0.407 0.1426
0.4075 0.1442
0.408 0.1442
0.4085 0.1446
0.409 0.1455
0.4095 0.1455
0.41 0.1446
0.4105 0.1455
0.411 0.1462
0.4115 0.1484
0.412 0.1494
0.4125 0.151
0.413 0.1513
0.4135 0.1513
0.414 0.1497
0.4145 0.1494
0.415 0.152
0.4155 0.1526
0.416 0.1513
0.4165 0.1478
0.417 0.1465
0.4175 0.1481
0.418 0.1484
0.4185 0.1494
0.419 0.1487
0.4195 0.1475
0.42 0.1468
0.4205 0.1484
0.421 0.151
0.4215 0.152
0.422 0.152
0.4225 0.1507
0.423 0.1516
0.4235 0.151
0.424 0.152
0.4245 0.1516
0.425 0.151
0.4255 0.1497
0.426 0.1494
0.4265 0.1478
0.427 0.1465
0.4275 0.1442
0.428 0.1442
0.4285 0.1458
0.429 0.1465
0.4295 0.1481
0.43 0.1484
0.4305 0.1504
0.431 0.1507
0.4315 0.1507
0.432 0.151
0.4325 0.1513
0.433 0.152
0.4335 0.1507
0.434 0.1497
0.4345 0.1487
0.435 0.1491
0.4355 0.1478
0.436 0.1481
0.4365 0.1491
0.437 0.151
0.4375 0.1516
0.438 0.1504
0.4385 0.1497
0.439 0.15
0.4395 0.1491
0.44 0.1481
0.4405 0.15
0.441 0.151
0.4415 0.1504
0.442 0.1491
0.4425 0.1497
0.443 0.1487
0.4435 0.1475
0.444 0.1478
0.4445 0.1504
0.445 0.1504
0.4455 0.1497
0.446 0.1481
0.4465 0.1475
0.447 0.1481
0.4475 0.1484
0.448 0.1487
0.4485 0.1465
0.449 0.1465
0.4495 0.1449
0.45 0.1449
0.4505 0.1452
0.451 0.1471
0.4515 0.1484
0.452 0.1471
0.4525 0.1446
0.453 0.1449
0.4535 0.1455
0.454 0.1468
0.4545 0.1471
0.455 0.1491
0.4555 0.1491
0.456 0.1487
0.4565 0.1481
0.457 0.1487
0.4575 0.1516
0.458 0.1526
0.4585 0.1523
0.459 0.1507
0.4595 0.1484
0.46 0.1475
0.4605 0.1462
0.461 0.1465
0.4615 0.1471
0.462 0.1491
0.4625 0.1497
0.463 0.152
0.4635 0.1523
0.464 0.1504
0.4645 0.1516
0.465 0.1516
0.4655 0.1526
0.466 0.1526
0.4665 0.1504
0.467 0.1494
0.4675 0.1484
0.468 0.1468
0.4685 0.1458
0.469 0.1475
0.4695 0.1491
0.47 0.1484
0.4705 0.1478
0.471 0.1481
0.4715 0.1475
0.472 0.1468
0.4725 0.1478
0.473 0.1494
0.4735 0.1484
0.474 0.1494
0.4745 0.1504
0.475 0.151
0.4755 0.1526
0.476 0.1526
0.4765 0.1494
0.477 0.1465
0.4775 0.1462
0.478 0.1465
0.4785 0.1462
0.479 0.1452
0.4795 0.1426
0.48 0.1433
0.4805 0.1449
0.481 0.1475
0.4815 0.1494
0.482 0.1507
0.4825 0.1513
0.483 0.1526
0.4835 0.1529
0.484 0.1533
0.4845 0.1526
0.485 0.1533
0.4855 0.1549
0.486 0.1555
0.4865 0.1549
0.487 0.1536
0.4875 0.1513
0.488 0.15
0.4885 0.1504
0.489 0.1497
0.4895 0.15
0.49 0.1497
0.4905 0.1487
0.491 0.1481
0.4915 0.1475
0.492 0.1468
0.4925 0.1458
0.493 0.1462
0.4935 0.1455
0.494 0.1452
0.4945 0.1446
0.495 0.1465
0.4955 0.1481
0.496 0.1481
0.4965 0.1468
0.497 0.1452
0.4975 0.1433
0.498 0.1442
0.4985 0.1446
0.499 0.1452
0.4995 0.1468
0.5 0.1471
0.5005 0.1462
0.501 0.1462
0.5015 0.1478
0.502 0.1494
0.5025 0.1487
0.503 0.1468
0.5035 0.1468
0.504 0.1484
0.5045 0.1484
0.505 0.1484
0.5055 0.1478
0.506 0.1487
0.5065 0.1504
0.507 0.1494
0.5075 0.1491
0.508 0.15
0.5085 0.1516
0.509 0.1507
0.5095 0.1484
0.51 0.15
0.5105 0.1504
0.511 0.15
0.5115 0.1487
0.512 0.1471
0.5125 0.1487
0.513 0.1487
0.5135 0.1487
0.514 0.1478
0.5145 0.1471
0.515 0.1452
0.5155 0.1449
0.516 0.1446
0.5165 0.1452
0.517 0.1468
0.5175 0.1481
0.518 0.1507
0.5185 0.1504
0.519 0.151
0.5195 0.15
0.52 0.1484
0.5205 0.1465
0.521 0.1452
0.5215 0.1455
0.522 0.1481
0.5225 0.1504
0.523 0.1497
0.5235 0.1484
0.524 0.1487
0.5245 0.152
0.525 0.152
0.5255 0.152
0.526 0.1507
0.5265 0.15
0.527 0.1494
0.5275 0.151
0.528 0.1526
0.5285 0.152
0.529 0.1487
0.5295 0.1478
0.53 0.1487
0.5305 0.1471
0.531 0.1449
0.5315 0.1449
0.532 0.1455
0.5325 0.1449
0.533 0.1446
0.5335 0.1452
0.534 0.1475
0.5345 0.1487
0.535 0.1484
0.5355 0.1465
0.536 0.1471
0.5365 0.1484
0.537 0.1494
0.5375 0.1491
0.538 0.1494
0.5385 0.151
0.539 0.1513
0.5395 0.1516
0.54 0.1526
0.5405 0.1539
0.541 0.1529
0.5415 0.1507
0.542 0.1497
0.5425 0.1484
0.543 0.1481
0.5435 0.1487
0.544 0.1475
0.5445 0.1452
0.545 0.1439
0.5455 0.1442
0.546 0.1452
0.5465 0.1446
0.547 0.1452
0.5475 0.1446
0.548 0.1446
0.5485 0.1462
0.549 0.1487
0.5495 0.1504
0.55 0.1491
0.5505 0.1484
0.551 0.1484
0.5515 0.1497
0.552 0.1487
0.5525 0.1471
0.553 0.1465
0.5535 0.1471
0.554 0.1491
0.5545 0.1497
0.555 0.1484
0.5555 0.1484
0.556 0.1481
0.5565 0.1478
0.557 0.1475
0.5575 0.1462
0.558 0.1462
0.5585 0.1478
0.559 0.1481
0.5595 0.1494
0.56 0.151
0.5605 0.1513
0.561 0.1513
0.5615 0.1523
0.562 0.1516
0.5625 0.1507
0.563 0.1516
0.5635 0.1513
0.564 0.1507
0.5645 0.1478
0.565 0.1462
0.5655 0.1452
0.566 0.1455
0.5665 0.1475
0.567 0.1497
0.5675 0.1507
0.568 0.1494
0.5685 0.1494
0.569 0.15
0.5695 0.1504
0.57 0.1487
0.5705 0.1468
0.571 0.1465
0.5715 0.1458
0.572 0.1465
0.5725 0.1481
0.573 0.1478
0.5735 0.1471
0.574 0.1494
0.5745 0.1504
0.575 0.1478
0.5755 0.1452
0.576 0.1449
0.5765 0.1471
0.577 0.1491
0.5775 0.1487
0.578 0.1478
0.5785 0.1484
0.579 0.1491
0.5795 0.1497
0.58 0.1481
0.5805 0.1481
0.581 0.1487
0.5815 0.1494
0.582 0.1497
0.5825 0.1494
0.583 0.1497
0.5835 0.1487
0.584 0.1478
0.5845 0.1484
0.585 0.1487
0.5855 0.1487
0.586 0.1487
0.5865 0.1497
0.587 0.1497
0.5875 0.151
0.588 0.1504
0.5885 0.1468
0.589 0.1458
0.5895 0.1458
0.59 0.1458
0.5905 0.1455
0.591 0.1468
0.5915 0.1468
0.592 0.1452
0.5925 0.1442
0.593 0.1452
0.5935 0.1494
0.594 0.1526
0.5945 0.1523
0.595 0.1516
0.5955 0.1516
0.596 0.1513
0.5965 0.1513
0.597 0.1504
0.5975 0.1507
0.598 0.152
0.5985 0.1533
0.599 0.1542
0.5995 0.1558
0.6 0.1568
0.6005 0.1568
0.601 0.1568
0.6015 0.1545
0.602 0.151
0.6025 0.1497
0.603 0.1468
0.6035 0.1439
0.604 0.1423
0.6045 0.142
0.605 0.141
0.6055 0.1426
0.606 0.1449
0.6065 0.1462
0.607 0.1465
0.6075 0.1468
0.608 0.1478
0.6085 0.1494
0.609 0.1507
0.6095 0.1504
0.61 0.151
0.6105 0.1513
0.611 0.1516
0.6115 0.1507
0.612 0.1491
0.6125 0.1491
0.613 0.1507
0.6135 0.1523
0.614 0.1536
0.6145 0.1536
0.615 0.1539
0.6155 0.1513
0.616 0.1475
0.6165 0.1462
0.617 0.1455
0.6175 0.1452
0.618 0.1455
0.6185 0.1452
0.619 0.1439
0.6195 0.1462
0.62 0.1475
0.6205 0.1465
0.621 0.1458
0.6215 0.1471
0.622 0.1465
0.6225 0.1465
0.623 0.1468
0.6235 0.1475
0.624 0.1481
0.6245 0.1491
0.625 0.15
0.6255 0.1504
0.626 0.1504
0.6265 0.15
0.627 0.1484
0.6275 0.15
0.628 0.1494
0.6285 0.1487
0.629 0.1523
0.6295 0.1555
0.63 0.1571
0.6305 0.1555
0.631 0.1526
0.6315 0.151
0.632 0.15
0.6325 0.1487
0.633 0.1468
0.6335 0.1452
0.634 0.1436
0.6345 0.1433
0.635 0.1436
0.6355 0.1439
0.636 0.1426
0.6365 0.1423
0.637 0.1426
0.6375 0.1436
0.638 0.1458
0.6385 0.1458
0.639 0.1468
0.6395 0.1471
0.64 0.1491
0.6405 0.152
0.641 0.1552
0.6415 0.1578
0.642 0.1561
0.6425 0.1545
0.643 0.1549
0.6435 0.1555
0.644 0.1565
0.6445 0.1561
0.645 0.1536
0.6455 0.1507
0.646 0.1484
0.6465 0.1471
0.647 0.1452
0.6475 0.1439
0.648 0.1436
0.6485 0.1465
0.649 0.1494
0.6495 0.1494
0.65 0.1487
0.6505 0.1487
0.651 0.1487
0.6515 0.1497
0.652 0.151
0.6525 0.15
0.653 0.1465
0.6535 0.1429
0.654 0.1449
0.6545 0.1491
0.655 0.15
0.6555 0.15
0.656 0.1507
0.6565 0.1494
0.657 0.1481
0.6575 0.1481
0.658 0.1497
0.6585 0.1516
0.659 0.1504
0.6595 0.1491
0.66 0.1468
0.6605 0.1455
0.661 0.1458
0.6615 0.1468
0.662 0.1462
0.6625 0.1458
0.663 0.1465
0.6635 0.1458
0.664 0.1471
0.6645 0.1494
0.665 0.15
0.6655 0.151
0.666 0.152
0.6665 0.152
0.667 0.1504
0.6675 0.15
0.668 0.1507
0.6685 0.1504
0.669 0.1484
0.6695 0.1475
0.67 0.1465
0.6705 0.1465
0.671 0.1452
0.6715 0.1449
0.672 0.1449
0.6725 0.1462
0.673 0.1478
0.6735 0.1468
0.674 0.1465
0.6745 0.1471
0.675 0.1487
0.6755 0.1487
0.676 0.1465
0.6765 0.1478
0.677 0.1504
0.6775 0.1497
0.678 0.1481
0.6785 0.1481
0.679 0.1484
0.6795 0.1484
0.68 0.1484
0.6805 0.1487
0.681 0.1487
0.6815 0.1484
0.682 0.15
0.6825 0.152
0.683 0.1526
0.6835 0.1504
0.684 0.1497
0.6845 0.1487
0.685 0.1487
0.6855 0.1497
0.686 0.1513
0.6865 0.1497
0.687 0.1471
0.6875 0.1446
0.688 0.1458
0.6885 0.1481
0.689 0.1494
0.6895 0.1497
0.69 0.1497
0.6905 0.1481
0.691 0.1468
0.6915 0.1452
0.692 0.1455
0.6925 0.1452
0.693 0.1439
0.6935 0.1433
0.694 0.1449
0.6945 0.1462
0.695 0.1452
0.6955 0.1455
0.696 0.1468
0.6965 0.1481
0.697 0.1487
0.6975 0.1468
0.698 0.1458
0.6985 0.1468
0.699 0.1487
0.6995 0.151
0.7 0.1526
0.7005 0.1539
0.701 0.1539
0.7015 0.1529
0.702 0.1526
0.7025 0.1533
0.703 0.1523
0.7035 0.1491
0.704 0.1471
0.7045 0.1475
0.705 0.1491
0.7055 0.1481
0.706 0.1481
0.7065 0.1458
0.707 0.1462
0.7075 0.1465
0.708 0.1491
0.7085 0.1513
0.709 0.1526
0.7095 0.151
0.71 0.1478
0.7105 0.1484
0.711 0.1513
0.7115 0.151
0.712 0.1494
0.7125 0.1484
0.713 0.1504
0.7135 0.15
0.714 0.1481
0.7145 0.1468
0.715 0.1465
0.7155 0.1484
0.716 0.1507
0.7165 0.1523
0.717 0.1526
0.7175 0.1533
0.718 0.1536
0.7185 0.15
0.719 0.1494
0.7195 0.1484
0.72 0.1481
0.7205 0.1458
0.721 0.1426
0.7215 0.1397
0.722 0.1384
0.7225 0.1368
0.723 0.1372
0.7235 0.1372
0.724 0.1394
0.7245 0.1397
0.725 0.1413
0.7255 0.1407
0.726 0.1439
0.7265 0.1449
0.727 0.1468
0.7275 0.1478
0.728 0.1491
0.7285 0.15
0.729 0.1536
0.7295 0.1536
0.73 0.152
0.7305 0.1529
0.731 0.1561
0.7315 0.1581
0.732 0.16
0.7325 0.1632
0.733 0.1642
0.7335 0.1632
0.734 0.1613
0.7345 0.1597
0.735 0.1558
0.7355 0.1516
0.736 0.1516
0.7365 0.1523
0.737 0.1533
0.7375 0.1526
0.738 0.1513
0.7385 0.1497
0.739 0.1487
0.7395 0.1471
0.74 0.1465
0.7405 0.1465
0.741 0.1471
0.7415 0.1458
0.742 0.1468
0.7425 0.1484
0.743 0.151
0.7435 0.1494
0.744 0.1478
0.7445 0.1468
0.745 0.1475
0.7455 0.1462
0.746 0.1442
0.7465 0.141
0.747 0.1394
0.7475 0.1413
0.748 0.142
0.7485 0.1407
0.749 0.1413
0.7495 0.1413
0.75 0.141
0.7505 0.1423
0.751 0.1439
0.7515 0.1439
0.752 0.1458
0.7525 0.1487
0.753 0.1523
0.7535 0.1529
0.754 0.1516
0.7545 0.1468
0.755 0.1436
0.7555 0.1423
0.756 0.1442
0.7565 0.1436
0.757 0.1433
0.7575 0.1429
0.758 0.1468
0.7585 0.1481
0.759 0.1465
0.7595 0.1446
0.76 0.1455
0.7605 0.1471
0.761 0.1484
0.7615 0.1468
0.762 0.1465
0.7625 0.1462
0.763 0.1484
0.7635 0.1497
0.764 0.151
0.7645 0.1516
0.765 0.1542
0.7655 0.1555
0.766 0.1542
0.7665 0.152
0.767 0.1526
0.7675 0.1539
0.768 0.1555
0.7685 0.1571
0.769 0.1565
0.7695 0.1545
0.77 0.1526
0.7705 0.1529
0.771 0.1536
0.7715 0.1549
0.772 0.1545
0.7725 0.1529
0.773 0.1504
0.7735 0.1487
0.774 0.1487
0.7745 0.1487
0.775 0.1475
0.7755 0.1471
0.776 0.1475
0.7765 0.1497
0.777 0.152
0.7775 0.1516
0.778 0.1481
0.7785 0.1487
0.779 0.1507
0.7795 0.15
0.78 0.1497
0.7805 0.1494
0.781 0.1497
0.7815 0.1507
0.782 0.1504
0.7825 0.152
0.783 0.1526
0.7835 0.1526
0.784 0.1484
0.7845 0.1462
0.785 0.1446
0.7855 0.1449
0.786 0.1436
0.7865 0.141
0.787 0.1397
0.7875 0.1391
0.788 0.1397
0.7885 0.1381
0.789 0.1375
0.7895 0.1372
0.79 0.1384
0.7905 0.1394
0.791 0.1391
0.7915 0.1362
0.792 0.1359
0.7925 0.1372
0.793 0.1388
0.7935 0.1442
0.794 0.151
0.7945 0.1552
0.795 0.1581
0.7955 0.1578
0.796 0.1561
0.7965 0.1549
0.797 0.1529
0.7975 0.1507
0.798 0.15
0.7985 0.15
0.799 0.1487
0.7995 0.1471
0.8 0.1475
0.8005 0.1484
0.801 0.1481
0.8015 0.1471
0.802 0.1475
0.8025 0.1491
0.803 0.1523
0.8035 0.1523
0.804 0.152
0.8045 0.1529
0.805 0.1545
0.8055 0.1545
0.806 0.1545
0.8065 0.1536
0.807 0.1536
0.8075 0.1558
0.808 0.1581
0.8085 0.1587
0.809 0.1587
0.8095 0.1584
0.81 0.1568
0.8105 0.1555
0.811 0.1545
0.8115 0.1529
0.812 0.1504
0.8125 0.1484
0.813 0.1468
0.8135 0.1462
0.814 0.1458
0.8145 0.1458
0.815 0.1455
0.8155 0.1442
0.816 0.1429
0.8165 0.1423
0.817 0.142
0.8175 0.1446
0.818 0.1475
0.8185 0.1465
0.819 0.1471
0.8195 0.1475
0.82 0.1478
0.8205 0.1487
0.821 0.1471
0.8215 0.1465
0.822 0.1449
0.8225 0.1455
0.823 0.1475
0.8235 0.1484
0.824 0.1475
0.8245 0.1462
0.825 0.1468
0.8255 0.1484
0.826 0.1494
0.8265 0.1478
0.827 0.1455
0.8275 0.1423
0.828 0.1391
0.8285 0.1368
0.829 0.1388
0.8295 0.1426
0.83 0.1481
0.8305 0.1507
0.831 0.1523
0.8315 0.151
0.832 0.1491
0.8325 0.1484
0.833 0.1478
0.8335 0.1465
0.834 0.1462
0.8345 0.1468
0.835 0.15
0.8355 0.1516
0.836 0.1529
0.8365 0.1555
0.837 0.1584
0.8375 0.1584
0.838 0.1568
0.8385 0.1549
0.839 0.1536
0.8395 0.1529
0.84 0.15
0.8405 0.1468
0.841 0.1465
0.8415 0.1471
0.842 0.1487
0.8425 0.1507
0.843 0.1516
0.8435 0.1507
0.844 0.1494
0.8445 0.1504
0.845 0.151
0.8455 0.1513
0.846 0.1526
0.8465 0.1533
0.847 0.1542
0.8475 0.1529
0.848 0.1529
0.8485 0.1555
0.849 0.1565
0.8495 0.1594
0.85 0.1594
0.8505 0.1574
0.851 0.1545
0.8515 0.1526
0.852 0.1516
0.8525 0.1504
0.853 0.1491
0.8535 0.1481
0.854 0.1458
0.8545 0.1394
0.855 0.1365
0.8555 0.1359
0.856 0.1343
0.8565 0.1336
0.857 0.133
0.8575 0.1317
0.858 0.1304
0.8585 0.1307
0.859 0.1339
0.8595 0.1346
0.86 0.1346
0.8605 0.1343
0.861 0.133
0.8615 0.1343
0.862 0.1384
0.8625 0.1442
0.863 0.1497
0.8635 0.1552
0.864 0.1581
0.8645 0.1594
0.865 0.1613
0.8655 0.1645
0.866 0.1655
0.8665 0.1655
0.867 0.1636
0.8675 0.1613
0.868 0.1584
0.8685 0.1565
0.869 0.1587
0.8695 0.1603
0.87 0.1587
0.8705 0.1581
0.871 0.1571
0.8715 0.1565
0.872 0.1574
0.8725 0.1594
0.873 0.159
0.8735 0.1568
0.874 0.1529
0.8745 0.1487
0.875 0.1449
0.8755 0.1429
0.876 0.1426
0.8765 0.1404
0.877 0.1381
0.8775 0.1391
0.878 0.1378
0.8785 0.1368
0.879 0.1359
0.8795 0.1372
0.88 0.1378
0.8805 0.1388
0.881 0.1407
0.8815 0.142
0.882 0.1429
0.8825 0.1449
0.883 0.1468
0.8835 0.1462
0.884 0.1452
0.8845 0.1442
0.885 0.1468
0.8855 0.1487
0.886 0.1504
0.8865 0.1497
0.887 0.15
0.8875 0.1497
0.888 0.1497
0.8885 0.1484
0.889 0.1471
0.8895 0.15
0.89 0.1529
0.8905 0.1558
0.891 0.1549
0.8915 0.1542
0.892 0.1529
0.8925 0.152
0.893 0.1516
0.8935 0.152
0.894 0.1526
0.8945 0.1536
0.895 0.1568
0.8955 0.159
0.896 0.1568
0.8965 0.1539
0.897 0.15
0.8975 0.1494
0.898 0.1497
0.8985 0.1497
0.899 0.1471
0.8995 0.1478
0.9 0.1507
0.9005 0.1526
0.901 0.1533
0.9015 0.1516
0.902 0.151
0.9025 0.152
0.903 0.1536
0.9035 0.1529
0.904 0.151
0.9045 0.1484
0.905 0.1449
0.9055 0.1423
0.906 0.1394
0.9065 0.1384
0.907 0.1375
0.9075 0.1378
0.908 0.1388
0.9085 0.1378
0.909 0.1372
0.9095 0.1352
0.91 0.1355
0.9105 0.1372
0.911 0.1397
0.9115 0.1426
0.912 0.1452
0.9125 0.1487
0.913 0.1526
0.9135 0.1539
0.914 0.1552
0.9145 0.159
0.915 0.1619
0.9155 0.1648
0.916 0.1636
0.9165 0.1594
0.917 0.1542
0.9175 0.15
0.918 0.151
0.9185 0.1549
0.919 0.1565
0.9195 0.1552
0.92 0.1542
0.9205 0.1539
0.921 0.1516
0.9215 0.1497
0.922 0.1497
0.9225 0.1507
0.923 0.152
0.9235 0.1529
0.924 0.151
0.9245 0.1481
0.925 0.1475
0.9255 0.1494
0.926 0.1494
0.9265 0.1458
0.927 0.1462
0.9275 0.1475
0.928 0.1487
0.9285 0.1471
0.929 0.1452
0.9295 0.1458
0.93 0.1468
0.9305 0.1487
0.931 0.1491
0.9315 0.1507
0.932 0.1513
0.9325 0.1516
0.933 0.1507
0.9335 0.1481
0.934 0.1487
0.9345 0.1507
0.935 0.1504
0.9355 0.1478
0.936 0.1481
0.9365 0.1504
0.937 0.152
0.9375 0.152
0.938 0.1487
0.9385 0.1475
0.939 0.1446
0.9395 0.1407
0.94 0.1378
0.9405 0.1365
0.941 0.1368
0.9415 0.1365
0.942 0.133
0.9425 0.1317
0.943 0.1333
0.9435 0.1391
0.944 0.1468
0.9445 0.15
0.945 0.1504
0.9455 0.1507
0.946 0.151
0.9465 0.1504
0.947 0.1475
0.9475 0.1471
0.948 0.1491
0.9485 0.1513
0.949 0.151
0.9495 0.151
0.95 0.1516
0.9505 0.1545
0.951 0.1555
0.9515 0.1549
0.952 0.1545
0.9525 0.1542
0.953 0.1549
0.9535 0.1555
0.954 0.1565
0.9545 0.1581
0.955 0.1607
0.9555 0.1632
0.956 0.1648
0.9565 0.1636
0.957 0.1597
0.9575 0.1545
0.958 0.15
0.9585 0.1497
0.959 0.151
0.9595 0.1497
0.96 0.1478
0.9605 0.1481
0.961 0.1471
0.9615 0.1465
0.962 0.1478
0.9625 0.1478
0.963 0.1471
0.9635 0.1462
0.964 0.1465
0.9645 0.1478
0.965 0.151
0.9655 0.1542
0.966 0.1561
0.9665 0.1565
0.967 0.1539
0.9675 0.1513
0.968 0.1487
0.9685 0.1462
0.969 0.1433
0.9695 0.1401
0.97 0.1375
0.9705 0.1355
0.971 0.1352
0.9715 0.1388
0.972 0.1429
0.9725 0.1433
0.973 0.1436
0.9735 0.1462
0.974 0.1504
0.9745 0.1507
0.975 0.1471
0.9755 0.1449
0.976 0.1462
0.9765 0.1455
0.977 0.1462
0.9775 0.1436
0.978 0.1417
0.9785 0.1384
0.979 0.1359
0.9795 0.1346
0.98 0.1365
0.9805 0.1391
0.981 0.142
0.9815 0.1462
0.982 0.1494
0.9825 0.1533
0.983 0.1571
0.9835 0.1581
0.984 0.1597
0.9845 0.1587
0.985 0.1561
0.9855 0.1542
0.986 0.1542
0.9865 0.1549
0.987 0.1561
0.9875 0.1578
0.988 0.1594
0.9885 0.16
0.989 0.1597
0.9895 0.1597
0.99 0.1584
0.9905 0.1594
0.991 0.1616
0.9915 0.1671
0.992 0.1713
0.9925 0.171
0.993 0.1684
0.9935 0.1632
0.994 0.1594
0.9945 0.1565
0.995 0.1539
0.9955 0.1504
0.996 0.1471
0.9965 0.1442
0.997 0.1417
0.9975 0.1381
0.998 0.1368
0.9985 0.1368
0.999 0.1417
0.9995 0.1478
1 0.1516
1.0005 0.1507
1.001 0.1452
1.0015 0.1401
1.002 0.1336
1.0025 0.1278
1.003 0.1217
1.0035 0.1178
1.004 0.1159
1.0045 0.1185
1.005 0.124
1.0055 0.1301
1.006 0.1346
1.0065 0.1365
1.007 0.1378
1.0075 0.1404
1.008 0.1429
1.0085 0.1455
1.009 0.1484
1.0095 0.152
1.01 0.1549
1.0105 0.1568
1.011 0.1574
1.0115 0.1558
1.012 0.1574
1.0125 0.1632
1.013 0.1687
1.0135 0.1719
1.014 0.1697
1.0145 0.1658
1.015 0.1616
1.0155 0.159
1.016 0.1587
1.0165 0.161
1.017 0.1607
1.0175 0.1584
1.018 0.1581
1.0185 0.1581
1.019 0.1578
1.0195 0.1568
1.02 0.1565
1.0205 0.1558
1.021 0.1568
1.0215 0.1568
1.022 0.1555
1.0225 0.1568
1.023 0.1613
1.0235 0.1613
1.024 0.1549
1.0245 0.1481
1.025 0.1442
1.0255 0.1401
1.026 0.1336
1.0265 0.1272
1.027 0.1227
1.0275 0.1204
1.028 0.122
1.0285 0.1223
1.029 0.1223
1.0295 0.1214
1.03 0.122
1.0305 0.1259
1.031 0.1301
1.0315 0.1355
1.032 0.1407
1.0325 0.1465
1.033 0.1513
1.0335 0.152
1.034 0.1539
1.0345 0.1561
1.035 0.1597
1.0355 0.1629
1.036 0.1668
1.0365 0.17
1.037 0.1697
1.0375 0.1661
1.038 0.1623
1.0385 0.1613
1.039 0.1629
1.0395 0.1629
1.04 0.1623
1.0405 0.1607
1.041 0.1584
1.0415 0.1561
1.042 0.1568
1.0425 0.1568
1.043 0.1597
1.0435 0.159
1.044 0.1584
1.0445 0.1565
1.045 0.1536
1.0455 0.1497
1.046 0.1458
1.0465 0.1433
1.047 0.1401
1.0475 0.1359
1.048 0.1285
1.0485 0.1233
1.049 0.1204
1.0495 0.1217
1.05 0.1265
1.0505 0.1304
1.051 0.1336
1.0515 0.1365
1.052 0.1378
1.0525 0.1394
1.053 0.1397
1.0535 0.1407
1.054 0.1426
1.0545 0.1458
1.055 0.1481
1.0555 0.1533
1.056 0.1594
1.0565 0.1642
1.057 0.1629
1.0575 0.1623
1.058 0.1616
1.0585 0.159
1.059 0.1594
1.0595 0.1597
1.06 0.1578
1.0605 0.1565
1.061 0.1529
1.0615 0.1484
1.062 0.1458
1.0625 0.1478
1.063 0.1497
1.0635 0.1497
1.064 0.1513
1.0645 0.1565
1.065 0.1616
1.0655 0.159
1.066 0.152
1.0665 0.1423
1.067 0.1352
1.0675 0.1297
1.068 0.1285
1.0685 0.1304
1.069 0.1384
1.0695 0.1468
1.07 0.152
1.0705 0.1523
1.071 0.1516
1.0715 0.1523
1.072 0.151
1.0725 0.1468
1.073 0.1433
1.0735 0.142
1.074 0.1407
1.0745 0.1404
1.075 0.142
1.0755 0.1478
1.076 0.1545
1.0765 0.1597
1.077 0.1597
1.0775 0.1545
1.078 0.1507
1.0785 0.1475
1.079 0.1449
1.0795 0.1468
1.08 0.1484
1.0805 0.1484
1.081 0.1504
1.0815 0.152
1.082 0.1545
1.0825 0.1555
1.083 0.1568
1.0835 0.1607
1.084 0.1665
1.0845 0.1681
1.085 0.1661
1.0855 0.1639
1.086 0.16
1.0865 0.1552
1.087 0.1491
1.0875 0.1413
1.088 0.133
1.0885 0.1249
1.089 0.1191
1.0895 0.1159
1.09 0.1182
1.0905 0.1211
1.091 0.1246
1.0915 0.1256
1.092 0.1278
1.0925 0.132
1.093 0.1401
1.0935 0.1497
1.094 0.1619
1.0945 0.1687
1.095 0.1697
1.0955 0.1681
1.096 0.1665
1.0965 0.1652
1.097 0.1629
1.0975 0.1626
1.098 0.1639
1.0985 0.1658
1.099 0.1687
1.0995 0.1719
1.1 0.1722
1.1005 0.1722
1.101 0.1697
1.1015 0.1655
1.102 0.1636
1.1025 0.1632
1.103 0.159
1.1035 0.1533
1.104 0.1487
1.1045 0.152
1.105 0.1594
1.1055 0.161
1.106 0.152
1.1065 0.1375
1.107 0.123
1.1075 0.1104
1.108 0.1017
1.1085 0.09723
1.109 0.09626
1.1095 0.09787
1.11 0.09981
1.1105 0.1014
1.111 0.1046
1.1115 0.1085
1.112 0.1127
1.1125 0.1182
1.113 0.1291
1.1135 0.1404
1.114 0.1497
1.1145 0.1568
1.115 0.1655
1.1155 0.1719
1.116 0.1726
1.1165 0.171
1.117 0.1694
1.1175 0.1703
1.118 0.1694
1.1185 0.1636
1.119 0.1587
1.1195 0.1587
1.12 0.1597
1.1205 0.1629
1.121 0.1677
1.1215 0.171
1.122 0.1742
1.1225 0.1735
1.123 0.1729
1.1235 0.171
1.124 0.169
1.1245 0.1726
1.125 0.1739
1.1255 0.1706
1.126 0.1658
1.1265 0.1636
1.127 0.1594
1.1275 0.1542
1.128 0.1478
1.1285 0.1429
1.129 0.1359
1.1295 0.1294
1.13 0.1285
1.1305 0.1278
1.131 0.1269
1.1315 0.1291
1.132 0.1333
1.1325 0.1352
1.133 0.1326
1.1335 0.1297
1.134 0.1291
1.1345 0.1323
1.135 0.1375
1.1355 0.1439
1.136 0.1513
1.1365 0.1552
1.137 0.1571
1.1375 0.1558
1.138 0.1568
1.1385 0.1623
1.139 0.1665
1.1395 0.1655
1.14 0.1626
1.1405 0.161
1.141 0.1594
1.1415 0.16
1.142 0.159
1.1425 0.1549
1.143 0.1513
1.1435 0.1478
1.144 0.1452
1.1445 0.142
1.145 0.1394
1.1455 0.1384
1.146 0.1394
1.1465 0.1423
1.147 0.1439
1.1475 0.141
1.148 0.1388
1.1485 0.1381
1.149 0.1375
1.1495 0.1362
1.15 0.1339
1.1505 0.133
1.151 0.1314
1.1515 0.1304
1.152 0.1294
1.1525 0.1314
1.153 0.1317
1.1535 0.1307
1.154 0.1285
1.1545 0.1297
1.155 0.1355
1.1555 0.1423
1.156 0.1471
1.1565 0.1529
1.157 0.1613
1.1575 0.1703
1.158 0.1755
1.1585 0.1755
1.159 0.1703
1.1595 0.1658
1.16 0.1668
1.1605 0.1652
1.161 0.1568
1.1615 0.1481
1.162 0.1429
1.1625 0.1446
1.163 0.1468
1.1635 0.1484
1.164 0.1481
1.1645 0.1462
1.165 0.1478
1.1655 0.1497
1.166 0.1533
1.1665 0.1584
1.167 0.1619
1.1675 0.1648
1.168 0.1674
1.1685 0.1665
1.169 0.1613
1.1695 0.1542
1.17 0.1497
1.1705 0.1529
1.171 0.1597
1.1715 0.1626
1.172 0.1587
1.1725 0.1526
1.173 0.1465
1.1735 0.1455
1.174 0.142
1.1745 0.1394
1.175 0.1397
1.1755 0.1404
1.176 0.1439
1.1765 0.152
1.177 0.1542
1.1775 0.1497
1.178 0.1452
1.1785 0.1394
1.179 0.1362
1.1795 0.1378
1.18 0.1429
1.1805 0.1465
1.181 0.1478
1.1815 0.1491
1.182 0.1497
1.1825 0.1478
1.183 0.1442
1.1835 0.1436
1.184 0.1449
1.1845 0.1471
1.185 0.1484
1.1855 0.1487
1.186 0.15
1.1865 0.1561
1.187 0.1674
1.1875 0.1777
1.188 0.1822
1.1885 0.1793
1.189 0.1729
1.1895 0.1648
1.19 0.1545
1.1905 0.1439
1.191 0.1365
1.1915 0.1323
1.192 0.1291
1.1925 0.1272
1.193 0.1259
1.1935 0.1272
1.194 0.1281
1.1945 0.1278
1.195 0.1285
1.1955 0.133
1.196 0.1413
1.1965 0.1487
1.197 0.1504
1.1975 0.1494
1.198 0.1513
1.1985 0.1533
1.199 0.1523
1.1995 0.1471
1.2 0.1394
1.2005 0.1352
1.201 0.1355
1.2015 0.1404
1.202 0.1455
1.2025 0.1504
1.203 0.1523
1.2035 0.15
1.204 0.1465
1.2045 0.1442
1.205 0.1478
1.2055 0.1516
1.206 0.1533
1.2065 0.1542
1.207 0.1571
1.2075 0.1578
1.208 0.1552
1.2085 0.1552
1.209 0.1545
1.2095 0.1545
1.21 0.1533
1.2105 0.1513
1.211 0.1465
1.2115 0.1458
1.212 0.1484
1.2125 0.1533
1.213 0.1536
1.2135 0.1516
1.214 0.1462
1.2145 0.141
1.215 0.1394
1.2155 0.1413
1.216 0.141
1.2165 0.1388
1.217 0.1391
1.2175 0.1394
1.218 0.142
1.2185 0.1468
1.219 0.1475
1.2195 0.1426
1.22 0.1372
1.2205 0.1346
1.221 0.1397
1.2215 0.1504
1.222 0.1616
1.2225 0.1677
1.223 0.1671
1.2235 0.1648
1.224 0.1603
1.2245 0.1552
1.225 0.1552
1.2255 0.1561
1.226 0.1581
1.2265 0.1558
1.227 0.1545
1.2275 0.1542
1.228 0.1539
1.2285 0.1526
1.229 0.151
1.2295 0.15
1.23 0.1516
1.2305 0.1552
1.231 0.1636
1.2315 0.1758
1.232 0.1819
1.2325 0.1803
1.233 0.1729
1.2335 0.1671
1.234 0.1626
1.2345 0.1623
1.235 0.1645
1.2355 0.1613
1.236 0.1523
1.2365 0.1561
1.237 0.1677
1.2375 0.1674
1.238 0.1494
1.2385 0.1249
1.239 0.1072
1.2395 0.09787
1.24 0.09304
1.2405 0.08886
1.241 0.08339
1.2415 0.08178
1.242 0.08725
1.2425 0.09337
1.243 0.09916
1.2435 0.105
1.244 0.1072
1.2445 0.1104
1.245 0.1182
1.2455 0.1297
1.246 0.1413
1.2465 0.1542
1.247 0.1661
1.2475 0.1761
1.248 0.1851
1.2485 0.1909
1.249 0.1935
1.2495 0.1941
1.25 0.1945
1.2505 0.1935
1.251 0.1945
1.2515 0.2028
1.252 0.2106
1.2525 0.2061
1.253 0.1922
1.2535 0.1787
1.254 0.1677
1.2545 0.1552
1.255 0.1429
1.2555 0.1355
1.256 0.1307
1.2565 0.1269
1.257 0.1214
1.2575 0.1217
1.258 0.1243
1.2585 0.1252
1.259 0.1272
1.2595 0.1301
1.26 0.1349
1.2605 0.1423
1.261 0.1523
1.2615 0.16
1.262 0.1597
1.2625 0.1539
1.263 0.1471
1.2635 0.1468
1.264 0.1449
1.2645 0.1384
1.265 0.1301
1.2655 0.1227
1.266 0.1201
1.2665 0.1223
1.267 0.1256
1.2675 0.131
1.268 0.1378
1.2685 0.1452
1.269 0.1533
1.2695 0.1623
1.27 0.1745
1.2705 0.1787
1.271 0.1835
1.2715 0.1912
1.272 0.1893
1.2725 0.1784
1.273 0.1652
1.2735 0.1578
1.274 0.1539
1.2745 0.1581
1.275 0.1665
1.2755 0.1642
1.276 0.1471
1.2765 0.1288
1.277 0.1149
1.2775 0.1079
1.278 0.1066
1.2785 0.1108
1.279 0.1149
1.2795 0.1153
1.28 0.1172
1.2805 0.1227
1.281 0.1278
1.2815 0.1323
1.282 0.1381
1.2825 0.1478
1.283 0.1594
1.2835 0.169
1.284 0.1739
1.2845 0.1784
1.285 0.1845
1.2855 0.1848
1.286 0.1803
1.2865 0.1726
1.287 0.1629
1.2875 0.1526
1.288 0.15
1.2885 0.1539
1.289 0.1584
1.2895 0.1571
1.29 0.1552
1.2905 0.1497
1.291 0.1449
1.2915 0.1429
1.292 0.1449
1.2925 0.15
1.293 0.1574
1.2935 0.1645
1.294 0.1655
1.2945 0.1594
1.295 0.1516
1.2955 0.1462
1.296 0.1433
1.2965 0.1439
1.297 0.1446
1.2975 0.1439
1.298 0.1423
1.2985 0.141
1.299 0.1401
1.2995 0.1397
1.3 0.1368
1.3005 0.1326
1.301 0.1301
1.3015 0.1265
1.302 0.1252
1.3025 0.1281
1.303 0.1326
1.3035 0.1355
1.304 0.1433
1.3045 0.1587
1.305 0.1784
1.3055 0.1883
1.306 0.179
1.3065 0.1613
1.307 0.1446
1.3075 0.1323
1.308 0.124
1.3085 0.1198
1.309 0.1211
1.3095 0.1198
1.31 0.1137
1.3105 0.1101
1.311 0.113
1.3115 0.1233
1.312 0.1339
1.3125 0.1384
1.313 0.1362
1.3135 0.1336
1.314 0.1349
1.3145 0.1388
1.315 0.1449
1.3155 0.1542
1.316 0.1619
1.3165 0.1684
1.317 0.1755
1.3175 0.1809
1.318 0.1829
1.3185 0.1835
1.319 0.1929
1.3195 0.2051
1.32 0.2057
1.3205 0.1961
1.321 0.1838
1.3215 0.1726
1.322 0.1648
1.3225 0.1607
1.323 0.16
1.3235 0.16
1.324 0.1561
1.3245 0.15
1.325 0.1439
1.3255 0.1423
1.326 0.1442
1.3265 0.1504
1.327 0.1529
1.3275 0.1504
1.328 0.1458
1.3285 0.1429
1.329 0.1368
1.3295 0.1323
1.33 0.1272
1.3305 0.1214
1.331 0.1214
1.3315 0.1297
1.332 0.1397
1.3325 0.1426
1.333 0.1439
1.3335 0.1516
1.334 0.1539
1.3345 0.1475
1.335 0.142
1.3355 0.1407
1.336 0.1359
1.3365 0.1249
1.337 0.1133
1.3375 0.1114
1.338 0.1165
1.3385 0.123
1.339 0.1269
1.3395 0.1288
1.34 0.1281
1.3405 0.1326
1.341 0.1429
1.3415 0.1529
1.342 0.1581
1.3425 0.1639
1.343 0.1713
1.3435 0.1777
1.344 0.1809
1.3445 0.1803
1.345 0.1797
1.3455 0.1774
1.346 0.1729
1.3465 0.1668
1.347 0.1603
1.3475 0.1561
1.348 0.1539
1.3485 0.1487
1.349 0.1426
1.3495 0.1343
1.35 0.1288
1.3505 0.1285
1.351 0.1314
1.3515 0.1362
1.352 0.1404
1.3525 0.1436
1.353 0.1426
1.3535 0.1426
1.354 0.1442
1.3545 0.1439
1.355 0.1433
1.3555 0.1455
1.356 0.1516
1.3565 0.1565
1.357 0.1568
1.3575 0.1539
1.358 0.1484
1.3585 0.1455
1.359 0.1471
1.3595 0.1513
1.36 0.1561
1.3605 0.161
1.361 0.1671
1.3615 0.1729
1.362 0.1735
1.3625 0.1694
1.363 0.1648
1.3635 0.161
1.364 0.1555
1.3645 0.1455
1.365 0.1391
1.3655 0.1394
1.366 0.1426
1.3665 0.1449
1.367 0.1478
1.3675 0.1574
1.368 0.1751
1.3685 0.1854
1.369 0.1809
1.3695 0.1665
1.37 0.1526
1.3705 0.1413
1.371 0.1304
1.3715 0.1223
1.372 0.1162
1.3725 0.1095
1.373 0.1011
1.3735 0.09433
1.374 0.09337
1.3745 0.09723
1.375 0.1043
1.3755 0.112
1.376 0.1227
1.3765 0.1326
1.377 0.1462
1.3775 0.16
1.378 0.1742
1.3785 0.1829
1.379 0.1845
1.3795 0.1832
1.38 0.1842
1.3805 0.1838
1.381 0.18
1.3815 0.1729
1.382 0.1655
1.3825 0.1571
1.383 0.1516
1.3835 0.1529
1.384 0.1607
1.3845 0.1745
1.385 0.1887
1.3855 0.1909
1.386 0.1838
1.3865 0.1745
1.387 0.1626
1.3875 0.1468
1.388 0.1307
1.3885 0.1159
1.389 0.1056
1.3895 0.1014
1.39 0.104
1.3905 0.1111
1.391 0.1178
1.3915 0.1233
1.392 0.1262
1.3925 0.1281
1.393 0.1304
1.3935 0.1352
1.394 0.1429
1.3945 0.1504
1.395 0.1552
1.3955 0.1552
1.396 0.1552
1.3965 0.1726
1.397 0.1925
1.3975 0.1945
1.398 0.1822
1.3985 0.1706
1.399 0.1607
1.3995 0.1516
1.4 0.141
1.4005 0.1388
1.401 0.1481
1.4015 0.1555
1.402 0.152
1.4025 0.1401
1.403 0.1243
1.4035 0.1079
1.404 0.09723
1.4045 0.09433
1.405 0.09433
1.4055 0.09337
1.406 0.09401
1.4065 0.09948
1.407 0.1104
1.4075 0.1204
1.408 0.1307
1.4085 0.1452
1.409 0.161
1.4095 0.171
1.41 0.178
1.4105 0.1803
1.411 0.179
1.4115 0.1719
1.412 0.1665
1.4125 0.1745
1.413 0.1948
1.4135 0.2122
1.414 0.2154
1.4145 0.2064
1.415 0.1945
1.4155 0.188
1.416 0.19
1.4165 0.1948
1.417 0.1916
1.4175 0.1806
1.418 0.1716
1.4185 0.1687
1.419 0.1648
1.4195 0.1558
1.42 0.1452
1.4205 0.1355
1.421 0.1265
1.4215 0.1194
1.422 0.1165
1.4225 0.1165
1.423 0.1159
1.4235 0.1146
1.424 0.1133
1.4245 0.1111
1.425 0.1143
1.4255 0.1265
1.426 0.1378
1.4265 0.1391
1.427 0.1381
1.4275 0.1468
1.428 0.1603
1.4285 0.1655
1.429 0.1652
1.4295 0.1636
1.43 0.1626
1.4305 0.1587
1.431 0.1513
1.4315 0.1468
1.432 0.1446
1.4325 0.1458
1.433 0.1471
1.4335 0.1468
1.434 0.1462
1.4345 0.1465
1.435 0.1513
1.4355 0.1587
1.436 0.1668
1.4365 0.1716
1.437 0.1694
1.4375 0.1655
1.438 0.1636
1.4385 0.1594
1.439 0.1497
1.4395 0.1384
1.44 0.1272
1.4405 0.1194
1.441 0.1156
1.4415 0.1117
1.442 0.112
1.4425 0.1201
1.443 0.1323
1.4435 0.1423
1.444 0.1449
1.4445 0.1391
1.445 0.1272
1.4455 0.1101
1.446 0.09272
1.4465 0.08242
1.447 0.08725
1.4475 0.09948
1.448 0.1101
1.4485 0.1259
1.449 0.1484
1.4495 0.1632
1.45 0.1671
1.4505 0.1665
1.451 0.1697
1.4515 0.1748
1.452 0.1854
1.4525 0.2205
1.453 0.265
1.4535 0.2795
1.454 0.2502
1.4545 0.2051
1.455 0.1648
1.4555 0.1372
1.456 0.1191
1.4565 0.105
1.457 0.1004
1.4575 0.1075
1.458 0.1172
1.4585 0.1204
1.459 0.1146
1.4595 0.1085
1.46 0.1114
1.4605 0.124
1.461 0.1355
1.4615 0.1423
1.462 0.1436
1.4625 0.152
1.463 0.1706
1.4635 0.1945
1.464 0.2035
1.4645 0.1925
1.465 0.1758
1.4655 0.1616
1.466 0.1561
1.4665 0.1516
1.467 0.1449
1.4675 0.1423
1.468 0.1475
1.4685 0.1536
1.469 0.1561
1.4695 0.16
1.47 0.1648
1.4705 0.1713
1.471 0.1745
1.4715 0.1768
1.472 0.1774
1.4725 0.178
1.473 0.1797
1.4735 0.1797
1.474 0.179
1.4745 0.1768
1.475 0.1726
1.4755 0.1632
1.476 0.1561
1.4765 0.1571
1.477 0.1578
1.4775 0.1545
1.478 0.1504
1.4785 0.1504
1.479 0.15
1.4795 0.1452
1.48 0.1397
1.4805 0.1339
1.481 0.1249
1.4815 0.1156
1.482 0.1095
1.4825 0.1043
1.483 0.1027
1.4835 0.1053
1.484 0.1294
1.4845 0.1626
1.485 0.1674
1.4855 0.1449
1.486 0.1159
1.4865 0.09337
1.487 0.07437
1.4875 0.0557
1.488 0.04153
1.4885 0.0425
1.489 0.05344
1.4895 0.06729
1.49 0.08339
1.4905 0.09723
1.491 0.114
1.4915 0.1372
1.492 0.16
1.4925 0.1716
1.493 0.1739
1.4935 0.1761
1.494 0.1819
1.4945 0.1903
1.495 0.199
1.4955 0.2032
1.496 0.2009
1.4965 0.1948
1.497 0.1861
1.4975 0.1835
1.498 0.1871
1.4985 0.1919
1.499 0.1983
1.4995 0.2015
1.5 0.1967
1.5005 0.19
1.501 0.1784
1.5015 0.1636
1.502 0.1568
1.5025 0.1552
1.503 0.1504
1.5035 0.1439
1.504 0.1355
1.5045 0.131
1.505 0.1317
1.5055 0.141
1.506 0.1623
1.5065 0.1835
1.507 0.1893
1.5075 0.179
1.508 0.1655
1.5085 0.1561
1.509 0.1468
1.5095 0.1343
1.51 0.1252
1.5105 0.1352
1.511 0.1545
1.5115 0.1661
1.512 0.1639
1.5125 0.152
1.513 0.1388
1.5135 0.1275
1.514 0.1175
1.5145 0.1088
1.515 0.1033
1.5155 0.1017
1.516 0.104
1.5165 0.1085
1.517 0.1133
1.5175 0.1211
1.518 0.1278
1.5185 0.1297
1.519 0.1352
1.5195 0.1452
1.52 0.1584
1.5205 0.1822
1.521 0.2112
1.5215 0.226
1.522 0.2193
1.5225 0.2054
1.523 0.1916
1.5235 0.1722
1.524 0.1504
1.5245 0.1355
1.525 0.1256
1.5255 0.1191
1.526 0.1124
1.5265 0.1056
1.527 0.103
1.5275 0.1062
1.528 0.1143
1.5285 0.1259
1.529 0.1355
1.5295 0.1378
1.53 0.1426
1.5305 0.1462
1.531 0.1458
1.5315 0.1452
1.532 0.1523
1.5325 0.1616
1.533 0.1665
1.5335 0.1632
1.534 0.1555
1.5345 0.1516
1.535 0.1555
1.5355 0.1623
1.536 0.1645
1.5365 0.1648
1.537 0.1655
1.5375 0.1652
1.538 0.1642
1.5385 0.1626
1.539 0.1578
1.5395 0.1545
1.54 0.1545
1.5405 0.1574
1.541 0.1623
1.5415 0.1636
1.542 0.1623
1.5425 0.1578
1.543 0.1581
1.5435 0.1613
1.544 0.1623
1.5445 0.1623
1.545 0.1619
1.5455 0.1613
1.546 0.1607
1.5465 0.159
1.547 0.1613
1.5475 0.1706
1.548 0.1774
1.5485 0.1706
1.549 0.1526
1.5495 0.1355
1.55 0.1217
1.5505 0.112
1.551 0.1095
1.5515 0.1162
1.552 0.1307
1.5525 0.1339
1.553 0.1217
1.5535 0.1088
1.554 0.1021
1.5545 0.09626
1.555 0.08821
1.5555 0.08403
1.556 0.08403
1.5565 0.08435
1.557 0.09369
1.5575 0.1114
1.558 0.1304
1.5585 0.1442
1.559 0.1549
1.5595 0.1661
1.56 0.1793
1.5605 0.1967
1.561 0.2099
1.5615 0.2112
1.562 0.1996
1.5625 0.1842
1.563 0.1755
1.5635 0.1748
1.564 0.1684
1.5645 0.1594
1.565 0.1549
1.5655 0.1603
1.566 0.171
1.5665 0.1774
1.567 0.1832
1.5675 0.1961
1.568 0.2022
1.5685 0.1945
1.569 0.1829
1.5695 0.1722
1.57 0.1652
1.5705 0.1536
1.571 0.1381
1.5715 0.1278
1.572 0.1214
1.5725 0.1108
1.573 0.103
1.5735 0.104
1.574 0.1153
1.5745 0.1262
1.575 0.1269
1.5755 0.1227
1.576 0.1227
1.5765 0.1291
1.577 0.1384
1.5775 0.1426
1.578 0.1436
1.5785 0.1497
1.579 0.1594
1.5795 0.1694
1.58 0.1722
1.5805 0.1742
1.581 0.1809
1.5815 0.1854
1.582 0.1848
1.5825 0.1854
1.583 0.2051
1.5835 0.2308
1.584 0.2273
1.5845 0.1929
1.585 0.1542
1.5855 0.1236
1.586 0.09691
1.5865 0.07373
1.587 0.0602
1.5875 0.0602
1.588 0.06407
1.5885 0.06986
1.589 0.07566
1.5895 0.08403
1.59 0.0982
1.5905 0.123
1.591 0.1491
1.5915 0.1665
1.592 0.1758
1.5925 0.1822
1.593 0.1916
1.5935 0.2041
1.594 0.2147
1.5945 0.2186
1.595 0.216
1.5955 0.2022
1.596 0.1806
1.5965 0.1574
1.597 0.1375
1.5975 0.1243
1.598 0.1146
1.5985 0.1085
1.599 0.1088
1.5995 0.1149
1.6 0.1246
1.6005 0.1314
1.601 0.1362
1.6015 0.1397
1.602 0.1423
1.6025 0.1439
1.603 0.1429
1.6035 0.1407
1.604 0.1372
1.6045 0.1375
1.605 0.1433
1.6055 0.1507
1.606 0.1578
1.6065 0.1613
1.607 0.1636
1.6075 0.1729
1.608 0.188
1.6085 0.1983
1.609 0.1996
1.6095 0.1916
1.61 0.18
1.6105 0.1697
1.611 0.1597
1.6115 0.15
1.612 0.1394
1.6125 0.1294
1.613 0.1223
1.6135 0.1178
1.614 0.1191
1.6145 0.1249
1.615 0.132
1.6155 0.1368
1.616 0.1401
1.6165 0.1372
1.617 0.1265
1.6175 0.1207
1.618 0.1201
1.6185 0.1201
1.619 0.124
1.6195 0.1362
1.62 0.1497
1.6205 0.1561
1.621 0.1597
1.6215 0.1632
1.622 0.1681
1.6225 0.1722
1.623 0.1719
1.6235 0.1668
1.624 0.1632
1.6245 0.17
1.625 0.1784
1.6255 0.1829
1.626 0.188
1.6265 0.1948
1.627 0.2028
1.6275 0.2044
1.628 0.198
1.6285 0.1874
1.629 0.1787
1.6295 0.1694
1.63 0.1533
1.6305 0.1314
1.631 0.112
1.6315 0.1004
1.632 0.0895
1.6325 0.07952
1.633 0.06729
1.6335 0.05731
1.634 0.05956
1.6345 0.06986
1.635 0.08339
1.6355 0.09626
1.636 0.1098
1.6365 0.1272
1.637 0.15
1.6375 0.171
1.638 0.1871
1.6385 0.2067
1.639 0.2289
1.6395 0.2318
1.64 0.216
1.6405 0.1925
1.641 0.1755
1.6415 0.1639
1.642 0.1529
1.6425 0.1429
1.643 0.1391
1.6435 0.1413
1.644 0.1365
1.6445 0.1249
1.645 0.1175
1.6455 0.1143
1.646 0.112
1.6465 0.114
1.647 0.1201
1.6475 0.1291
1.648 0.1375
1.6485 0.1455
1.649 0.1491
1.6495 0.1507
1.65 0.1494
1.6505 0.1504
1.651 0.1561
1.6515 0.1603
1.652 0.1571
1.6525 0.1555
1.653 0.161
1.6535 0.1735
1.654 0.1854
1.6545 0.1887
1.655 0.1816
1.6555 0.1713
1.656 0.1632
1.6565 0.1565
1.657 0.1568
1.6575 0.1639
1.658 0.1713
1.6585 0.1761
1.659 0.1735
1.6595 0.1661
1.66 0.1549
1.6605 0.1407
1.661 0.123
1.6615 0.1108
1.662 0.1037
1.6625 0.09884
1.663 0.1062
1.6635 0.1233
1.664 0.1352
1.6645 0.1384
1.665 0.1455
1.6655 0.1613
1.666 0.1729
1.6665 0.1755
1.667 0.1745
1.6675 0.1793
1.668 0.1816
1.6685 0.1806
1.669 0.1748
1.6695 0.1668
1.67 0.1613
1.6705 0.1555
1.671 0.1487
1.6715 0.1404
1.672 0.1301
1.6725 0.1233
1.673 0.1217
1.6735 0.1198
1.674 0.1217
1.6745 0.1281
1.675 0.1381
1.6755 0.1458
1.676 0.1516
1.6765 0.1603
1.677 0.1674
1.6775 0.1648
1.678 0.1574
1.6785 0.1487
1.679 0.1433
1.6795 0.1384
1.68 0.1314
1.6805 0.1217
1.681 0.1137
1.6815 0.1143
1.682 0.1162
1.6825 0.1178
1.683 0.1243
1.6835 0.133
1.684 0.1404
1.6845 0.1446
1.685 0.1475
1.6855 0.1549
1.686 0.1648
1.6865 0.1694
1.687 0.1703
1.6875 0.1706
1.688 0.1735
1.6885 0.1761
1.689 0.1854
1.6895 0.1929
1.69 0.2019
1.6905 0.2125
1.691 0.2106
1.6915 0.1948
1.692 0.1706
1.6925 0.1468
1.693 0.122
1.6935 0.09723
1.694 0.07823
1.6945 0.07018
1.695 0.07212
1.6955 0.0821
1.696 0.09272
1.6965 0.1033
1.697 0.1088
1.6975 0.1172
1.698 0.1272
1.6985 0.1339
1.699 0.1407
1.6995 0.1504
1.7 0.1619
1.7005 0.1732
1.701 0.1835
1.7015 0.1871
1.702 0.1871
1.7025 0.1896
1.703 0.1929
1.7035 0.1935
1.704 0.1887
1.7045 0.1829
1.705 0.1793
1.7055 0.1761
1.706 0.1726
1.7065 0.169
1.707 0.1655
1.7075 0.1671
1.708 0.1758
1.7085 0.1768
1.709 0.1674
1.7095 0.1539
1.71 0.1417
1.7105 0.1359
1.711 0.1294
1.7115 0.1207
1.712 0.1165
1.7125 0.1169
1.713 0.1185
1.7135 0.1172
1.714 0.1149
1.7145 0.1088
1.715 0.09948
1.7155 0.09948
1.716 0.113
1.7165 0.1339
1.717 0.1545
1.7175 0.1665
1.718 0.1684
1.7185 0.1661
1.719 0.17
1.7195 0.1793
1.72 0.1893
1.7205 0.1916
1.721 0.1867
1.7215 0.1793
1.722 0.1658
1.7225 0.1487
1.723 0.133
1.7235 0.1246
1.724 0.1259
1.7245 0.1333
1.725 0.1404
1.7255 0.1368
1.726 0.1272
1.7265 0.1143
1.727 0.105
1.7275 0.1069
1.728 0.1111
1.7285 0.1062
1.729 0.1001
1.7295 0.1079
1.73 0.1252
1.7305 0.142
1.731 0.1561
1.7315 0.1694
1.732 0.1822
1.7325 0.1925
1.733 0.2006
1.7335 0.208
1.734 0.2125
1.7345 0.2099
1.735 0.1967
1.7355 0.1829
1.736 0.1755
1.7365 0.1703
1.737 0.1594
1.7375 0.1439
1.738 0.1262
1.7385 0.1104
1.739 0.1011
1.7395 0.1037
1.74 0.1117
1.7405 0.1252
1.741 0.1397
1.7415 0.1607
1.742 0.1806
1.7425 0.1874
1.743 0.1835
1.7435 0.1803
1.744 0.178
1.7445 0.1742
1.745 0.1636
1.7455 0.1516
1.746 0.1407
1.7465 0.1262
1.747 0.1111
1.7475 0.1014
1.748 0.104
1.7485 0.1127
1.749 0.1236
1.7495 0.1394
1.75 0.1529
1.7505 0.1549
1.751 0.1458
1.7515 0.1365
1.752 0.1297
1.7525 0.1269
1.753 0.1297
1.7535 0.1378
1.754 0.1449
1.7545 0.1484
1.755 0.152
1.7555 0.1578
1.756 0.1581
1.7565 0.1555
1.757 0.1545
1.7575 0.1565
1.758 0.161
1.7585 0.1629
1.759 0.1616
1.7595 0.1581
1.76 0.1539
1.7605 0.1561
1.761 0.1616
1.7615 0.1687
1.762 0.1735
1.7625 0.1777
1.763 0.1787
1.7635 0.1764
1.764 0.17
1.7645 0.1616
1.765 0.1574
1.7655 0.1555
1.766 0.1533
1.7665 0.15
1.767 0.1494
1.7675 0.151
1.768 0.1481
1.7685 0.1397
1.769 0.1307
1.7695 0.1194
1.77 0.1085
1.7705 0.1082
1.771 0.1091
1.7715 0.1079
1.772 0.1075
1.7725 0.1059
1.773 0.09755
1.7735 0.08918
1.774 0.0924
1.7745 0.1075
1.775 0.1214
1.7755 0.1291
1.776 0.1384
1.7765 0.151
1.777 0.1568
1.7775 0.16
1.778 0.1603
1.7785 0.1584
1.779 0.161
1.7795 0.1668
1.78 0.1719
1.7805 0.1722
1.781 0.1665
1.7815 0.1587
1.782 0.1558
1.7825 0.1642
1.783 0.1803
1.7835 0.199
1.784 0.2125
1.7845 0.218
1.785 0.2125
1.7855 0.1964
1.786 0.1797
1.7865 0.1632
1.787 0.1484
1.7875 0.1368
1.788 0.133
1.7885 0.1339
1.789 0.1314
1.7895 0.1249
1.79 0.1211
1.7905 0.1285
1.791 0.1429
1.7915 0.1565
1.792 0.1645
1.7925 0.1703
1.793 0.1732
1.7935 0.1713
1.794 0.1687
1.7945 0.169
1.795 0.1677
1.7955 0.1607
1.796 0.1484
1.7965 0.1339
1.797 0.1178
1.7975 0.1027
1.798 0.09369
1.7985 0.09143
1.799 0.09111
1.7995 0.09143
1.8 0.0895
1.8005 0.0895
1.801 0.09691
1.8015 0.1095
1.802 0.123
1.8025 0.1349
1.803 0.1497
1.8035 0.1658
1.804 0.1761
1.8045 0.1797
1.805 0.18
1.8055 0.1813
1.806 0.1867
1.8065 0.1906
1.807 0.1883
1.8075 0.1848
1.808 0.1842
1.8085 0.1826
1.809 0.1771
1.8095 0.1726
1.81 0.1716
1.8105 0.1658
1.811 0.1558
1.8115 0.1442
1.812 0.1336
1.8125 0.124
1.813 0.1153
1.8135 0.1098
1.814 0.1056
1.8145 0.1056
1.815 0.1236
1.8155 0.1436
1.816 0.1523
1.8165 0.1465
1.817 0.1346
1.8175 0.1252
1.818 0.1246
1.8185 0.1285
1.819 0.1317
1.8195 0.1304
1.82 0.1304
1.8205 0.1352
1.821 0.1468
1.8215 0.161
1.822 0.1742
1.8225 0.1864
1.823 0.1954
1.8235 0.209
1.824 0.2141
1.8245 0.2064
1.825 0.1916
1.8255 0.1764
1.826 0.1594
1.8265 0.1446
1.827 0.1304
1.8275 0.1191
1.828 0.1114
1.8285 0.105
1.829 0.1027
1.8295 0.1059
1.83 0.1182
1.8305 0.1355
1.831 0.1513
1.8315 0.1677
1.832 0.1768
1.8325 0.1684
1.833 0.151
1.8335 0.141
1.834 0.1397
1.8345 0.1423
1.835 0.1449
1.8355 0.1455
1.836 0.1381
1.8365 0.1307
1.837 0.1272
1.8375 0.1198
1.838 0.1059
1.8385 0.1033
1.839 0.1117
1.8395 0.1207
1.84 0.1291
1.8405 0.1413
1.841 0.1504
1.8415 0.1539
1.842 0.1613
1.8425 0.1713
1.843 0.1816
1.8435 0.1925
1.844 0.2032
1.8445 0.2112
1.845 0.2106
1.8455 0.2083
1.846 0.2086
1.8465 0.2086
1.847 0.2009
1.8475 0.1877
1.848 0.1722
1.8485 0.1545
1.849 0.1397
1.8495 0.1275
1.85 0.1178
1.8505 0.1133
1.851 0.1133
1.8515 0.1191
1.852 0.1233
1.8525 0.1194
1.853 0.1108
1.8535 0.1133
1.854 0.1259
1.8545 0.1375
1.855 0.1491
1.8555 0.1607
1.856 0.1642
1.8565 0.1568
1.857 0.1468
1.8575 0.1372
1.858 0.1288
1.8585 0.1246
1.859 0.1252
1.8595 0.1304
1.86 0.132
1.8605 0.1256
1.861 0.1207
1.8615 0.1214
1.862 0.1259
1.8625 0.1349
1.863 0.1468
1.8635 0.1584
1.864 0.1636
1.8645 0.1636
1.865 0.1616
1.8655 0.16
1.866 0.1645
1.8665 0.1816
1.867 0.2044
1.8675 0.2157
1.868 0.209
1.8685 0.1858
1.869 0.1607
1.8695 0.1413
1.87 0.1281
1.8705 0.1175
1.871 0.1066
1.8715 0.09755
1.872 0.09626
1.8725 0.09948
1.873 0.09691
1.8735 0.09723
1.874 0.1082
1.8745 0.1281
1.875 0.1381
1.8755 0.1391
1.876 0.1368
1.8765 0.142
1.877 0.1533
1.8775 0.1619
1.878 0.1607
1.8785 0.1549
1.879 0.1513
1.8795 0.1533
1.88 0.1529
1.8805 0.1468
1.881 0.1384
1.8815 0.141
1.882 0.152
1.8825 0.1632
1.883 0.1703
1.8835 0.1764
1.884 0.1819
1.8845 0.1835
1.885 0.1848
1.8855 0.1912
1.886 0.1906
1.8865 0.1877
1.887 0.1925
1.8875 0.2019
1.888 0.207
1.8885 0.2038
1.889 0.1935
1.8895 0.1797
1.89 0.1674
1.8905 0.1561
1.891 0.1516
1.8915 0.152
1.892 0.1491
1.8925 0.142
1.893 0.1333
1.8935 0.1227
1.894 0.1114
1.8945 0.103
1.895 0.0982
1.8955 0.09465
1.896 0.09594
1.8965 0.1021
1.897 0.1111
1.8975 0.1204
1.898 0.1281
1.8985 0.1317
1.899 0.1349
1.8995 0.1391
1.9 0.1433
1.9005 0.1446
1.901 0.1436
1.9015 0.142
1.902 0.1394
1.9025 0.1446
1.903 0.1584
1.9035 0.1687
1.904 0.1668
1.9045 0.1594
1.905 0.1584
1.9055 0.161
1.906 0.1632
1.9065 0.1594
1.907 0.1516
1.9075 0.1481
1.908 0.1494
1.9085 0.1529
1.909 0.1526
1.9095 0.1494
1.91 0.1449
1.9105 0.1433
1.911 0.1426
1.9115 0.1413
1.912 0.1426
1.9125 0.1455
1.913 0.1442
1.9135 0.1375
1.914 0.1297
1.9145 0.1275
1.915 0.1236
1.9155 0.1182
1.916 0.1143
1.9165 0.1143
1.917 0.1217
1.9175 0.1326
1.918 0.1429
1.9185 0.1504
1.919 0.159
1.9195 0.17
1.92 0.1777
1.9205 0.1793
1.921 0.1787
1.9215 0.1787
1.922 0.1803
1.9225 0.1838
1.923 0.1854
1.9235 0.1842
1.924 0.1816
1.9245 0.1842
1.925 0.1861
1.9255 0.1838
1.926 0.1816
1.9265 0.1826
1.927 0.1871
1.9275 0.19
1.928 0.1816
1.9285 0.16
1.929 0.1336
1.9295 0.1082
1.93 0.08886
1.9305 0.08049
1.931 0.08532
1.9315 0.09498
1.932 0.09755
1.9325 0.09111
1.933 0.08532
1.9335 0.08564
1.934 0.09143
1.9345 0.09626
1.935 0.09852
1.9355 0.1059
1.936 0.1182
1.9365 0.1359
1.937 0.1513
1.9375 0.1623
1.938 0.1626
1.9385 0.1542
1.939 0.1574
1.9395 0.1742
1.94 0.1864
1.9405 0.1832
1.941 0.1777
1.9415 0.1829
1.942 0.1919
1.9425 0.1916
1.943 0.1819
1.9435 0.1726
1.944 0.1684
1.9445 0.1713
1.945 0.1748
1.9455 0.1751
1.946 0.1758
1.9465 0.1768
1.947 0.1784
1.9475 0.1787
1.948 0.1713
1.9485 0.1603
1.949 0.1529
1.9495 0.1523
1.95 0.1584
1.9505 0.161
1.951 0.1542
1.9515 0.1465
1.952 0.1426
1.9525 0.1394
1.953 0.1359
1.9535 0.1314
1.954 0.1294
1.9545 0.1278
1.955 0.124
1.9555 0.1194
1.956 0.1169
1.9565 0.1185
1.957 0.1194
1.9575 0.1149
1.958 0.1072
1.9585 0.104
1.959 0.1095
1.9595 0.124
1.96 0.1397
1.9605 0.1526
1.961 0.1616
1.9615 0.1652
1.962 0.1642
1.9625 0.1603
1.963 0.1571
1.9635 0.16
1.964 0.1684
1.9645 0.1748
1.965 0.1806
1.9655 0.1887
1.966 0.1974
1.9665 0.2012
1.967 0.1961
1.9675 0.188
1.968 0.1755
1.9685 0.1613
1.969 0.1433
1.9695 0.1207
1.97 0.09852
1.9705 0.08371
1.971 0.07051
1.9715 0.05505
1.972 0.04411
1.9725 0.04861
1.973 0.06439
1.9735 0.07405
1.974 0.08532
1.9745 0.112
1.975 0.1413
1.9755 0.1545
1.976 0.1558
1.9765 0.1655
1.977 0.1845
1.9775 0.1961
1.978 0.1974
1.9785 0.1977
1.979 0.2051
1.9795 0.2112
1.98 0.2138
1.9805 0.2154
1.981 0.2131
1.9815 0.2051
1.982 0.1906
1.9825 0.1761
1.983 0.1652
1.9835 0.1594
1.984 0.1571
1.9845 0.1549
1.985 0.1529
1.9855 0.1526
1.986 0.1504
1.9865 0.1452
1.987 0.1391
1.9875 0.1381
1.988 0.1391
1.9885 0.1462
1.989 0.159
1.9895 0.1655
1.99 0.1603
1.9905 0.1507
1.991 0.1439
1.9915 0.1478
1.992 0.1523
1.9925 0.1504
1.993 0.1384
1.9935 0.1259
1.994 0.1169
1.9945 0.1091
1.995 0.1014
1.9955 0.09659
1.996 0.09916
1.9965 0.1091
1.997 0.1214
1.9975 0.1343
1.998 0.1475
1.9985 0.1561
1.999 0.1545
1.9995 0.15
2 0.151
2.0005 0.1555
2.001 0.1555
2.0015 0.1539
2.002 0.1523
2.0025 0.1542
2.003 0.1561
2.0035 0.1594
2.004 0.16
2.0045 0.1555
2.005 0.1494
2.0055 0.1436
2.006 0.1439
2.0065 0.15
2.007 0.1578
2.0075 0.1574
2.008 0.1491
2.0085 0.141
2.009 0.142
2.0095 0.151
2.01 0.1584
2.0105 0.17
2.011 0.1861
2.0115 0.2009
2.012 0.2061
2.0125 0.2067
2.013 0.2028
2.0135 0.1883
2.014 0.1658
2.0145 0.1449
2.015 0.1291
2.0155 0.1146
2.016 0.1004
2.0165 0.08661
2.017 0.07856
2.0175 0.07759
2.018 0.0792
2.0185 0.0792
2.019 0.08178
2.0195 0.09433
2.02 0.1156
2.0205 0.1362
2.021 0.1484
2.0215 0.1536
2.022 0.1568
2.0225 0.1619
2.023 0.1719
2.0235 0.1874
2.024 0.2012
2.0245 0.2064
2.025 0.2044
2.0255 0.1983
2.026 0.1935
2.0265 0.1903
2.027 0.1867
2.0275 0.1813
2.028 0.1742
2.0285 0.1645
2.029 0.1533
2.0295 0.1458
2.03 0.1446
2.0305 0.1449
2.031 0.1465
2.0315 0.1494
2.032 0.1487
2.0325 0.1394
2.033 0.1288
2.0335 0.1384
2.034 0.1561
2.0345 0.1584
2.035 0.1436
2.0355 0.1317
2.036 0.1304
2.0365 0.1326
2.037 0.1291
2.0375 0.1191
2.038 0.1098
2.0385 0.1127
2.039 0.1272
2.0395 0.1446
2.04 0.1552
2.0405 0.1616
2.041 0.1674
2.0415 0.1681
2.042 0.1636
2.0425 0.1581
2.043 0.1552
2.0435 0.1507
2.044 0.142
2.0445 0.131
2.045 0.124
2.0455 0.1252
2.046 0.1281
2.0465 0.1262
2.047 0.1236
2.0475 0.1294
2.048 0.1388
2.0485 0.1481
2.049 0.1594
2.0495 0.1755
2.05 0.1941
2.0505 0.2035
2.051 0.198
2.0515 0.1938
2.052 0.1961
2.0525 0.2009
2.053 0.1996
2.0535 0.1887
2.054 0.1687
2.0545 0.1449
2.055 0.1223
2.0555 0.1017
2.056 0.08596
2.0565 0.07695
2.057 0.07373
2.0575 0.07662
2.058 0.08113
2.0585 0.08532
2.059 0.08532
2.0595 0.07405
2.06 0.06536
2.0605 0.07984
2.061 0.1153
2.0615 0.151
2.062 0.1735
2.0625 0.1832
2.063 0.1851
2.0635 0.1842
2.064 0.1829
2.0645 0.1797
2.065 0.1806
2.0655 0.1832
2.066 0.1883
2.0665 0.1925
2.067 0.1951
2.0675 0.199
2.068 0.2006
2.0685 0.197
2.069 0.1999
2.0695 0.2083
2.07 0.209
2.0705 0.2051
2.071 0.2012
2.0715 0.1977
2.072 0.1906
2.0725 0.18
2.073 0.1697
2.0735 0.1626
2.074 0.1542
2.0745 0.1423
2.075 0.1307
2.0755 0.1188
2.076 0.1062
2.0765 0.1008
2.077 0.09948
2.0775 0.0982
2.078 0.09981
2.0785 0.1011
2.079 0.1098
2.0795 0.1178
2.08 0.114
2.0805 0.1079
2.081 0.1156
2.0815 0.1294
2.082 0.1339
2.0825 0.1362
2.083 0.1497
2.0835 0.1671
2.084 0.17
2.0845 0.1616
2.085 0.1536
2.0855 0.1497
2.086 0.1471
2.0865 0.142
2.087 0.1349
2.0875 0.1252
2.088 0.1153
2.0885 0.1095
2.089 0.1101
2.0895 0.1127
2.09 0.1175
2.0905 0.1291
2.091 0.1433
2.0915 0.15
2.092 0.1523
2.0925 0.1571
2.093 0.1587
2.0935 0.1616
2.094 0.1639
2.0945 0.1629
2.095 0.159
2.0955 0.1632
2.096 0.1777
2.0965 0.1951
2.097 0.2054
2.0975 0.2083
2.098 0.2048
2.0985 0.1964
2.099 0.1874
2.0995 0.1793
2.1 0.1745
2.1005 0.1681
2.101 0.1597
2.1015 0.15
2.102 0.1401
2.1025 0.132
2.103 0.1233
2.1035 0.114
2.104 0.1059
2.1045 0.104
2.105 0.1117
2.1055 0.1227
2.106 0.1281
2.1065 0.1317
2.107 0.1365
2.1075 0.142
2.108 0.1594
2.1085 0.1758
2.109 0.18
2.1095 0.1758
2.11 0.169
2.1105 0.1603
2.111 0.1468
2.1115 0.1294
2.112 0.112
2.1125 0.1008
2.113 0.09981
2.1135 0.1066
2.114 0.1185
2.1145 0.1355
2.115 0.1497
2.1155 0.1581
2.116 0.1629
2.1165 0.1677
2.117 0.1745
2.1175 0.1777
2.118 0.1761
2.1185 0.1745
2.119 0.1777
2.1195 0.178
2.12 0.1722
2.1205 0.1652
2.121 0.16
2.1215 0.1533
2.122 0.1433
2.1225 0.1397
2.123 0.142
2.1235 0.152
2.124 0.1603
2.1245 0.1603
2.125 0.1516
2.1255 0.1423
2.126 0.1355
2.1265 0.124
2.127 0.1124
2.1275 0.1098
2.128 0.1153
2.1285 0.123
2.129 0.131
2.1295 0.142
2.13 0.1533
2.1305 0.16
2.131 0.161
2.1315 0.1665
2.132 0.1739
2.1325 0.1771
2.133 0.1722
2.1335 0.1648
2.134 0.1587
2.1345 0.1555
2.135 0.1539
2.1355 0.1462
2.136 0.1372
2.1365 0.1269
2.137 0.1172
2.1375 0.1085
2.138 0.1088
2.1385 0.1146
2.139 0.1153
2.1395 0.1175
2.14 0.1307
2.1405 0.1504
2.141 0.1661
2.1415 0.1742
2.142 0.1803
2.1425 0.1851
2.143 0.1887
2.1435 0.1916
2.144 0.1977
2.1445 0.2015
2.145 0.1951
2.1455 0.1832
2.146 0.1768
2.1465 0.1668
2.147 0.1523
2.1475 0.1439
2.148 0.1388
2.1485 0.1294
2.149 0.1104
2.1495 0.09433
2.15 0.08886
2.1505 0.08918
2.151 0.09401
2.1515 0.09916
2.152 0.1053
2.1525 0.1185
2.153 0.1375
2.1535 0.1558
2.154 0.1665
2.1545 0.1677
2.155 0.1684
2.1555 0.1687
2.156 0.1681
2.1565 0.1687
2.157 0.1719
2.1575 0.1803
2.158 0.1854
2.1585 0.1797
2.159 0.1764
2.1595 0.1816
2.16 0.1848
2.1605 0.1774
2.161 0.1658
2.1615 0.1536
2.162 0.1413
2.1625 0.1294
2.163 0.1172
2.1635 0.1108
2.164 0.1098
2.1645 0.1124
2.165 0.1159
2.1655 0.1178
2.166 0.1211
2.1665 0.1252
2.167 0.1336
2.1675 0.1465
2.168 0.1555
2.1685 0.1561
2.169 0.1552
2.1695 0.1578
2.17 0.1658
2.1705 0.1697
2.171 0.1655
2.1715 0.1581
2.172 0.1523
2.1725 0.1523
2.173 0.1584
2.1735 0.1703
2.174 0.1829
2.1745 0.1896
2.175 0.1858
2.1755 0.1829
2.176 0.1867
2.1765 0.1854
2.177 0.1745
2.1775 0.1539
2.178 0.1343
2.1785 0.122
2.179 0.1198
2.1795 0.1249
2.18 0.1275
2.1805 0.122
2.181 0.113
2.1815 0.1066
2.182 0.1008
2.1825 0.09691
2.183 0.09433
2.1835 0.09562
2.184 0.105
2.1845 0.1156
2.185 0.1243
2.1855 0.131
2.186 0.1359
2.1865 0.1465
2.187 0.1616
2.1875 0.1739
2.188 0.1784
2.1885 0.1768
2.189 0.1758
2.1895 0.1751
2.19 0.1735
2.1905 0.1732
2.191 0.1745
2.1915 0.1742
2.192 0.1729
2.1925 0.1687
2.193 0.1607
2.1935 0.1513
2.194 0.1442
2.1945 0.1401
2.195 0.1368
2.1955 0.1362
2.196 0.1388
2.1965 0.1446
2.197 0.15
2.1975 0.1555
2.198 0.1584
2.1985 0.161
2.199 0.1642
2.1995 0.1671
2.2 0.1703
2.2005 0.1758
2.201 0.1793
2.2015 0.1768
2.202 0.1735
2.2025 0.1697
2.203 0.1581
2.2035 0.1413
2.204 0.1288
2.2045 0.1198
2.205 0.1127
2.2055 0.09787
2.206 0.08306
2.2065 0.08532
2.207 0.1059
2.2075 0.1297
2.208 0.1455
2.2085 0.1404
2.209 0.1217
2.2095 0.1085
2.21 0.1211
2.2105 0.1513
2.211 0.1722
2.2115 0.1719
2.212 0.1645
2.2125 0.1632
2.213 0.171
2.2135 0.1797
2.214 0.1851
2.2145 0.1826
2.215 0.1761
2.2155 0.1687
2.216 0.1648
2.2165 0.1613
2.217 0.1584
2.2175 0.16
2.218 0.1639
2.2185 0.1636
2.219 0.159
2.2195 0.1539
2.22 0.152
2.2205 0.1491
2.221 0.1465
2.2215 0.1494
2.222 0.1558
2.2225 0.1578
2.223 0.151
2.2235 0.1394
2.224 0.1352
2.2245 0.1375
2.225 0.1372
2.2255 0.1339
2.226 0.1297
2.2265 0.1294
2.227 0.1314
2.2275 0.1359
2.228 0.1426
2.2285 0.1516
2.229 0.1652
2.2295 0.1745
2.23 0.171
2.2305 0.159
2.231 0.1455
2.2315 0.1326
2.232 0.1275
2.2325 0.1269
2.233 0.1297
2.2335 0.1314
2.234 0.133
2.2345 0.1333
2.235 0.1349
2.2355 0.1346
2.236 0.1362
2.2365 0.1478
2.237 0.16
2.2375 0.1607
2.238 0.1578
2.2385 0.1549
2.239 0.1565
2.2395 0.1561
2.24 0.1507
2.2405 0.1375
2.241 0.1214
2.2415 0.1149
2.242 0.1214
2.2425 0.1297
2.243 0.1314
2.2435 0.1291
2.244 0.1336
2.2445 0.1513
2.245 0.1758
2.2455 0.198
2.246 0.2044
2.2465 0.1996
2.247 0.1938
2.2475 0.1867
2.248 0.1813
2.2485 0.1742
2.249 0.1677
2.2495 0.1603
2.25 0.1513
2.2505 0.1407
2.251 0.1265
2.2515 0.1143
2.252 0.1053
2.2525 0.1017
2.253 0.1098
2.2535 0.1278
2.254 0.1433
2.2545 0.1497
2.255 0.151
2.2555 0.1536
2.256 0.1584
2.2565 0.1658
2.257 0.1697
2.2575 0.1703
2.258 0.1745
2.2585 0.1771
2.259 0.1745
2.2595 0.1742
2.26 0.1758
2.2605 0.1758
2.261 0.1784
2.2615 0.179
2.262 0.1713
2.2625 0.1574
2.263 0.1439
2.2635 0.1339
2.264 0.1262
2.2645 0.1194
2.265 0.1124
2.2655 0.1104
2.266 0.113
2.2665 0.1137
2.267 0.113
2.2675 0.1191
2.268 0.1294
2.2685 0.1433
2.269 0.1542
2.2695 0.1581
2.27 0.1523
2.2705 0.1439
2.271 0.1372
2.2715 0.1365
2.272 0.1388
2.2725 0.1384
2.273 0.1355
2.2735 0.1362
2.274 0.1397
2.2745 0.1433
2.275 0.1471
2.2755 0.151
2.276 0.1549
2.2765 0.1623
2.277 0.1706
2.2775 0.1787
2.278 0.18
2.2785 0.1742
2.279 0.1684
2.2795 0.1642
2.28 0.1587
2.2805 0.152
2.281 0.1529
2.2815 0.16
2.282 0.1639
2.2825 0.1574
2.283 0.1465
2.2835 0.1391
2.284 0.1378
2.2845 0.1378
2.285 0.1256
2.2855 0.1104
2.286 0.1021
2.2865 0.1072
2.287 0.1246
2.2875 0.1391
2.288 0.1423
2.2885 0.1384
2.289 0.1359
2.2895 0.1343
2.29 0.1365
2.2905 0.1449
2.291 0.1632
2.2915 0.188
2.292 0.2173
2.2925 0.2354
2.293 0.2325
2.2935 0.2167
2.294 0.1977
2.2945 0.1816
2.295 0.1616
2.2955 0.1375
2.296 0.1188
2.2965 0.1101
2.297 0.1021
2.2975 0.08918
2.298 0.07566
2.2985 0.07405
2.299 0.08145
2.2995 0.09272
2.3 0.105
2.3005 0.1207
2.301 0.1346
2.3015 0.1487
2.302 0.1677
2.3025 0.1883
2.303 0.1983
2.3035 0.2009
2.304 0.199
2.3045 0.1958
2.305 0.1909
2.3055 0.1835
2.306 0.1771
2.3065 0.1703
2.307 0.1677
2.3075 0.1694
2.308 0.1684
2.3085 0.1594
2.309 0.1504
2.3095 0.1484
2.31 0.1549
2.3105 0.161
2.311 0.1639
2.3115 0.161
2.312 0.1558
2.3125 0.1539
2.313 0.1568
2.3135 0.1545
2.314 0.1436
2.3145 0.1339
2.315 0.1249
2.3155 0.1133
2.316 0.1059
2.3165 0.1066
2.317 0.1091
2.3175 0.1091
2.318 0.1127
2.3185 0.1198
2.319 0.123
2.3195 0.1198
2.32 0.1207
2.3205 0.1297
2.321 0.1475
2.3215 0.1597
2.322 0.1636
2.3225 0.1613
2.323 0.1597
2.3235 0.16
2.324 0.161
2.3245 0.1607
2.325 0.1607
2.3255 0.1619
2.326 0.1668
2.3265 0.169
2.327 0.1694
2.3275 0.1668
2.328 0.1603
2.3285 0.1542
2.329 0.1504
2.3295 0.1494
2.33 0.1484
2.3305 0.1468
2.331 0.1436
2.3315 0.1372
2.332 0.1285
2.3325 0.1162
2.333 0.1075
2.3335 0.1085
2.334 0.1204
2.3345 0.1307
2.335 0.1352
2.3355 0.1404
2.336 0.15
2.3365 0.1571
2.337 0.1555
2.3375 0.1555
2.338 0.1642
2.3385 0.1751
2.339 0.1771
2.3395 0.171
2.34 0.1665
2.3405 0.1674
2.341 0.1713
2.3415 0.1751
2.342 0.1745
2.3425 0.1703
2.343 0.1648
2.3435 0.1555
2.344 0.1397
2.3445 0.124
2.345 0.1165
2.3455 0.1175
2.346 0.122
2.3465 0.1326
2.347 0.1439
2.3475 0.1471
2.348 0.1433
2.3485 0.1426
2.349 0.1481
2.3495 0.1558
2.35 0.1652
2.3505 0.1764
2.351 0.1793
2.3515 0.1674
2.352 0.1533
2.3525 0.1478
2.353 0.1523
2.3535 0.1594
2.354 0.1639
2.3545 0.1629
2.355 0.1587
2.3555 0.1539
2.356 0.1462
2.3565 0.1413
2.357 0.1452
2.3575 0.1513
2.358 0.1555
2.3585 0.1542
2.359 0.1526
2.3595 0.1536
2.36 0.152
2.3605 0.1497
2.361 0.1449
2.3615 0.1401
2.362 0.1349
2.3625 0.1304
2.363 0.1278
2.3635 0.1323
2.364 0.1368
2.3645 0.1378
2.365 0.1346
2.3655 0.133
2.366 0.1343
2.3665 0.1423
2.367 0.1565
2.3675 0.1636
2.368 0.1603
2.3685 0.1455
2.369 0.1343
2.3695 0.1375
2.37 0.1468
2.3705 0.152
2.371 0.1533
2.3715 0.1529
2.372 0.1561
2.3725 0.1613
2.373 0.1671
2.3735 0.1722
2.374 0.1745
2.3745 0.1687
2.375 0.1652
2.3755 0.1697
2.376 0.1706
2.3765 0.1629
2.377 0.1513
2.3775 0.1378
2.378 0.1269
2.3785 0.1191
2.379 0.1137
2.3795 0.1072
2.38 0.1011
2.3805 0.09755
2.381 0.1017
2.3815 0.1069
2.382 0.1146
2.3825 0.1301
2.383 0.1507
2.3835 0.1636
2.384 0.1681
2.3845 0.171
2.385 0.1745
2.3855 0.1745
2.386 0.1722
2.3865 0.1616
2.387 0.1439
2.3875 0.1359
2.388 0.1452
2.3885 0.1594
2.389 0.1671
2.3895 0.17
2.39 0.1761
2.3905 0.1842
2.391 0.1896
2.3915 0.1922
2.392 0.1929
2.3925 0.1887
2.393 0.1793
2.3935 0.1658
2.394 0.1504
2.3945 0.1352
2.395 0.1262
2.3955 0.1185
2.396 0.1095
2.3965 0.1027
2.397 0.103
2.3975 0.1108
2.398 0.122
2.3985 0.1288
2.399 0.1294
2.3995 0.1278
2.4 0.1294
2.4005 0.1388
2.401 0.1542
2.4015 0.1684
2.402 0.1771
2.4025 0.1764
2.403 0.1697
2.4035 0.16
2.404 0.15
2.4045 0.1423
2.405 0.1401
2.4055 0.1446
2.406 0.1542
2.4065 0.1587
2.407 0.1533
2.4075 0.1458
2.408 0.1436
2.4085 0.1436
2.409 0.1442
2.4095 0.1446
2.41 0.1462
2.4105 0.1507
2.411 0.1536
2.4115 0.1539
2.412 0.1545
2.4125 0.1545
2.413 0.1571
2.4135 0.16
2.414 0.1574
2.4145 0.1529
2.415 0.15
2.4155 0.1526
2.416 0.1542
2.4165 0.1513
2.417 0.1478
2.4175 0.1458
2.418 0.1458
2.4185 0.1478
2.419 0.15
2.4195 0.1504
2.42 0.1504
2.4205 0.1494
2.421 0.1487
2.4215 0.1523
2.422 0.1558
2.4225 0.1561
2.423 0.152
2.4235 0.1465
2.424 0.141
2.4245 0.1362
2.425 0.1362
2.4255 0.1397
2.426 0.1417
2.4265 0.1429
2.427 0.1494
2.4275 0.1545
2.428 0.1458
2.4285 0.1314
2.429 0.1265
2.4295 0.1291
2.43 0.1326
2.4305 0.1343
2.431 0.1423
2.4315 0.1523
2.432 0.1526
2.4325 0.1458
2.433 0.1465
2.4335 0.1542
2.434 0.1561
2.4345 0.1484
2.435 0.1317
2.4355 0.1249
2.436 0.1452
2.4365 0.1703
2.437 0.1851
2.4375 0.1854
2.438 0.1761
2.4385 0.161
2.439 0.1513
2.4395 0.15
2.44 0.1439
2.4405 0.1343
2.441 0.1294
2.4415 0.1269
2.442 0.123
2.4425 0.1159
2.443 0.1053
2.4435 0.09562
2.444 0.09304
2.4445 0.09562
2.445 0.09594
2.4455 0.09498
2.446 0.1043
2.4465 0.1355
2.447 0.1726
2.4475 0.197
2.448 0.2083
2.4485 0.2118
2.449 0.2122
2.4495 0.2115
2.45 0.2128
2.4505 0.2141
2.451 0.2099
2.4515 0.2006
2.452 0.188
2.4525 0.1764
2.453 0.1687
2.4535 0.1629
2.454 0.1629
2.4545 0.1684
2.455 0.1755
2.4555 0.1774
2.456 0.1742
2.4565 0.1677
2.457 0.1613
2.4575 0.1526
2.458 0.1413
2.4585 0.1323
2.459 0.1265
2.4595 0.1246
2.46 0.1304
2.4605 0.1378
2.461 0.1375
2.4615 0.1394
2.462 0.1449
2.4625 0.1475
2.463 0.1449
2.4635 0.142
2.464 0.1391
2.4645 0.1355
2.465 0.1314
2.4655 0.1275
2.466 0.1214
2.4665 0.1172
2.467 0.1114
2.4675 0.1114
2.468 0.1172
2.4685 0.1278
2.469 0.1375
2.4695 0.1442
2.47 0.1452
2.4705 0.1442
2.471 0.1426
2.4715 0.141
2.472 0.1384
2.4725 0.1336
2.473 0.1262
2.4735 0.1194
2.474 0.1178
2.4745 0.1185
2.475 0.1169
2.4755 0.1095
2.476 0.1056
2.4765 0.1098
2.477 0.124
2.4775 0.1458
2.478 0.1665
2.4785 0.1739
2.479 0.1706
2.4795 0.1674
2.48 0.169
2.4805 0.1729
2.481 0.1764
2.4815 0.1806
2.482 0.1826
2.4825 0.1819
2.483 0.1813
2.4835 0.1797
2.484 0.1784
2.4845 0.1777
2.485 0.178
2.4855 0.1806
2.486 0.1829
2.4865 0.1809
2.487 0.1758
2.4875 0.1716
2.488 0.1729
2.4885 0.1761
2.489 0.1742
2.4895 0.1674
2.49 0.1516
2.4905 0.1336
2.491 0.1269
2.4915 0.1265
2.492 0.1198
2.4925 0.113
2.493 0.1111
2.4935 0.1091
2.494 0.09948
2.4945 0.08757
2.495 0.08145
2.4955 0.08661
2.496 0.1004
2.4965 0.114
2.497 0.1223
2.4975 0.1297
2.498 0.1401
2.4985 0.1552
2.499 0.1719
2.4995 0.1848
2.5 0.1906
2.5005 0.1909
2.501 0.189
2.5015 0.1906
2.502 0.1919
2.5025 0.19
2.503 0.1826
2.5035 0.1771
2.504 0.1797
2.5045 0.1835
2.505 0.1774
2.5055 0.1668
2.506 0.1594
2.5065 0.1571
2.507 0.1552
2.5075 0.1578
2.508 0.17
2.5085 0.1771
2.509 0.1719
2.5095 0.1607
2.51 0.1494
2.5105 0.1394
2.511 0.1297
2.5115 0.1236
2.512 0.1207
2.5125 0.1162
2.513 0.1079
2.5135 0.1014
2.514 0.09755
2.5145 0.09111
2.515 0.09015
2.5155 0.09433
2.516 0.09981
2.5165 0.1059
2.517 0.1108
2.5175 0.1098
2.518 0.1066
2.5185 0.1162
2.519 0.1346
2.5195 0.1484
2.52 0.1565
2.5205 0.1626
2.521 0.17
2.5215 0.1784
2.522 0.1864
2.5225 0.1938
2.523 0.1967
2.5235 0.1958
2.524 0.1929
2.5245 0.1919
2.525 0.19
2.5255 0.1829
2.526 0.1739
2.5265 0.1668
2.527 0.1619
2.5275 0.1565
2.528 0.1504
2.5285 0.1497
2.529 0.152
2.5295 0.1442
2.53 0.1323
2.5305 0.1339
2.531 0.1426
2.5315 0.1468
2.532 0.1439
2.5325 0.1375
2.533 0.1375
2.5335 0.1388
2.534 0.1346
2.5345 0.1259
2.535 0.1185
2.5355 0.1194
2.536 0.1249
2.5365 0.1278
2.537 0.1307
2.5375 0.1323
2.538 0.1343
2.5385 0.1355
2.539 0.1317
2.5395 0.1281
2.54 0.1323
2.5405 0.1426
2.541 0.1581
2.5415 0.1748
2.542 0.1864
2.5425 0.1893
2.543 0.1916
2.5435 0.1925
2.544 0.1903
2.5445 0.1838
2.545 0.1777
2.5455 0.1755
2.546 0.1761
2.5465 0.1751
2.547 0.1719
2.5475 0.1716
2.548 0.1706
2.5485 0.1665
2.549 0.1536
2.5495 0.1401
2.55 0.1297
2.5505 0.1243
2.551 0.1233
2.5515 0.1246
2.552 0.1243
2.5525 0.124
2.553 0.1236
2.5535 0.1249
2.554 0.1278
2.5545 0.133
2.555 0.1404
2.5555 0.1481
2.556 0.1545
2.5565 0.1578
2.557 0.1545
2.5575 0.1494
2.558 0.151
2.5585 0.1536
2.559 0.1513
2.5595 0.1584
2.56 0.1668
2.5605 0.1648
2.561 0.1539
2.5615 0.1384
2.562 0.1259
2.5625 0.1137
2.563 0.1037
2.5635 0.09852
2.564 0.09852
2.5645 0.1011
2.565 0.114
2.5655 0.1333
2.566 0.1481
2.5665 0.1516
2.567 0.1523
2.5675 0.1558
2.568 0.1574
2.5685 0.1568
2.569 0.159
2.5695 0.1639
2.57 0.1665
2.5705 0.1674
2.571 0.171
2.5715 0.1768
2.572 0.1777
2.5725 0.1774
2.573 0.1787
2.5735 0.178
2.574 0.1745
2.5745 0.1694
2.575 0.1613
2.5755 0.151
2.576 0.1436
2.5765 0.141
2.577 0.1401
2.5775 0.1413
2.578 0.1381
2.5785 0.1304
2.579 0.1285
2.5795 0.1359
2.58 0.1452
2.5805 0.1536
2.581 0.1642
2.5815 0.1716
2.582 0.1719
2.5825 0.1632
2.583 0.1536
2.5835 0.1462
2.584 0.1388
2.5845 0.1323
2.585 0.133
2.5855 0.1413
2.586 0.1481
2.5865 0.1507
2.587 0.1507
2.5875 0.1513
2.588 0.1536
2.5885 0.1574
2.589 0.1626
2.5895 0.1648
2.59 0.1642
2.5905 0.1616
2.591 0.1561
2.5915 0.151
2.592 0.1478
2.5925 0.1468
2.593 0.1452
2.5935 0.1381
2.594 0.1259
2.5945 0.1111
2.595 0.1079
2.5955 0.1159
2.596 0.1269
2.5965 0.1346
2.597 0.1346
2.5975 0.132
2.598 0.1346
2.5985 0.142
2.599 0.1462
2.5995 0.1481
2.6 0.1523
2.6005 0.1574
2.601 0.1636
2.6015 0.1681
2.602 0.1687
2.6025 0.1661
2.603 0.1626
2.6035 0.1584
2.604 0.159
2.6045 0.1648
2.605 0.1677
2.6055 0.1636
2.606 0.152
2.6065 0.1359
2.607 0.1236
2.6075 0.1133
2.608 0.105
2.6085 0.1037
2.609 0.1137
2.6095 0.1256
2.61 0.1339
2.6105 0.1426
2.611 0.1491
2.6115 0.15
2.612 0.1507
2.6125 0.1584
2.613 0.1665
2.6135 0.1713
2.614 0.1739
2.6145 0.1748
2.615 0.1787
2.6155 0.1848
2.616 0.1883
2.6165 0.1883
2.617 0.1826
2.6175 0.179
2.618 0.1826
2.6185 0.188
2.619 0.1912
2.6195 0.1941
2.62 0.1906
2.6205 0.1784
2.621 0.1584
2.6215 0.1346
2.622 0.1153
2.6225 0.09948
2.623 0.08661
2.6235 0.07791
2.624 0.07276
2.6245 0.06439
2.625 0.05956
2.6255 0.06697
2.626 0.08854
2.6265 0.1062
2.627 0.1204
2.6275 0.133
2.628 0.1417
2.6285 0.1487
2.629 0.1616
2.6295 0.1732
2.63 0.1803
2.6305 0.1842
2.631 0.1922
2.6315 0.1983
2.632 0.198
2.6325 0.1941
2.633 0.1919
2.6335 0.1919
2.634 0.19
2.6345 0.1826
2.635 0.1735
2.6355 0.1665
2.636 0.1581
2.6365 0.1478
2.637 0.1378
2.6375 0.1291
2.638 0.1198
2.6385 0.1165
2.639 0.122
2.6395 0.1288
2.64 0.133
2.6405 0.1362
2.641 0.1491
2.6415 0.1684
2.642 0.1816
2.6425 0.1832
2.643 0.1809
2.6435 0.1793
2.644 0.1742
2.6445 0.1661
2.645 0.1578
2.6455 0.15
2.646 0.1481
2.6465 0.1497
2.647 0.1468
2.6475 0.132
2.648 0.1188
2.6485 0.1156
2.649 0.1178
2.6495 0.113
2.65 0.103
2.6505 0.0953
2.651 0.09659
2.6515 0.1117
2.652 0.1307
2.6525 0.1417
2.653 0.1455
2.6535 0.1494
2.654 0.1549
2.6545 0.1629
2.655 0.1684
2.6555 0.1661
2.656 0.1626
2.6565 0.1639
2.657 0.1652
2.6575 0.1648
2.658 0.1681
2.6585 0.1668
2.659 0.1597
2.6595 0.1545
2.66 0.1555
2.6605 0.1545
2.661 0.1475
2.6615 0.1359
2.662 0.1294
2.6625 0.1294
2.663 0.131
2.6635 0.1317
2.664 0.1394
2.6645 0.1484
2.665 0.1494
2.6655 0.1436
2.666 0.1388
2.6665 0.1423
2.667 0.1513
2.6675 0.1607
2.668 0.1687
2.6685 0.1819
2.669 0.1948
2.6695 0.1948
2.67 0.1871
2.6705 0.1777
2.671 0.1655
2.6715 0.1513
2.672 0.1394
2.6725 0.132
2.673 0.1288
2.6735 0.124
2.674 0.1172
2.6745 0.1095
2.675 0.1017
2.6755 0.1014
2.676 0.1198
2.6765 0.1468
2.677 0.1626
2.6775 0.1658
2.678 0.1636
2.6785 0.1616
2.679 0.161
2.6795 0.16
2.68 0.1565
2.6805 0.1561
2.681 0.1607
2.6815 0.1668
2.682 0.1722
2.6825 0.1838
2.683 0.1967
2.6835 0.1948
2.684 0.1816
2.6845 0.1687
2.685 0.1561
2.6855 0.1407
2.686 0.1211
2.6865 0.1033
2.687 0.09562
2.6875 0.09852
2.688 0.104
2.6885 0.1066
2.689 0.1104
2.6895 0.1111
2.69 0.1117
2.6905 0.1188
2.691 0.1352
2.6915 0.1523
2.692 0.1684
2.6925 0.18
2.693 0.1861
2.6935 0.1858
2.694 0.1829
2.6945 0.179
2.695 0.1764
2.6955 0.1742
2.696 0.1703
2.6965 0.1681
2.697 0.169
2.6975 0.1697
2.698 0.1726
2.6985 0.1755
2.699 0.1761
2.6995 0.1732
2.7 0.1636
2.7005 0.1555
2.701 0.1545
2.7015 0.1523
2.702 0.1417
2.7025 0.1256
2.703 0.1172
2.7035 0.1165
2.704 0.1165
2.7045 0.1137
2.705 0.1046
2.7055 0.09433
2.706 0.08918
2.7065 0.09401
2.707 0.1091
2.7075 0.1249
2.708 0.1362
2.7085 0.1407
2.709 0.1442
2.7095 0.1555
2.71 0.1716
2.7105 0.1838
2.711 0.1858
2.7115 0.1819
2.712 0.1826
2.7125 0.1858
2.713 0.1848
2.7135 0.1774
2.714 0.1694
2.7145 0.1607
2.715 0.1552
2.7155 0.15
2.716 0.1452
2.7165 0.1401
2.717 0.1404
2.7175 0.1475
2.718 0.1555
2.7185 0.1545
2.719 0.1487
2.7195 0.1439
2.72 0.1449
2.7205 0.1487
2.721 0.1497
2.7215 0.1462
2.722 0.1407
2.7225 0.1359
2.723 0.1333
2.7235 0.1326
2.724 0.1349
2.7245 0.1452
2.725 0.1594
2.7255 0.1648
2.726 0.1639
2.7265 0.1603
2.727 0.1555
2.7275 0.1507
2.728 0.1475
2.7285 0.1468
2.729 0.1439
2.7295 0.1417
2.73 0.1375
2.7305 0.1294
2.731 0.1207
2.7315 0.1143
2.732 0.1153
2.7325 0.1223
2.733 0.1314
2.7335 0.1433
2.734 0.1552
2.7345 0.1684
2.735 0.1774
2.7355 0.1761
2.736 0.1677
2.7365 0.1587
2.737 0.1549
2.7375 0.1565
2.738 0.1581
2.7385 0.1571
2.739 0.1558
2.7395 0.1565
2.74 0.16
2.7405 0.1626
2.741 0.1642
2.7415 0.1674
2.742 0.171
2.7425 0.1716
2.743 0.1703
2.7435 0.1677
2.744 0.1616
2.7445 0.1507
2.745 0.1384
2.7455 0.133
2.746 0.131
2.7465 0.1278
2.747 0.1249
2.7475 0.133
2.748 0.1571
2.7485 0.1764
2.749 0.1774
2.7495 0.1652
2.75 0.1484
2.7505 0.1323
2.751 0.1223
2.7515 0.1191
2.752 0.1214
2.7525 0.1211
2.753 0.1146
2.7535 0.1072
2.754 0.1082
2.7545 0.1143
2.755 0.1246
2.7555 0.1372
2.756 0.1536
2.7565 0.1668
2.757 0.1739
2.7575 0.1768
2.758 0.1787
2.7585 0.1797
2.759 0.1768
2.7595 0.1668
2.76 0.1561
2.7605 0.1478
2.761 0.1417
2.7615 0.1339
2.762 0.124
2.7625 0.1204
2.763 0.1249
2.7635 0.1333
2.764 0.1378
2.7645 0.1407
2.765 0.1481
2.7655 0.1636
2.766 0.1797
2.7665 0.19
2.767 0.1935
2.7675 0.1929
2.768 0.1916
2.7685 0.188
2.769 0.1864
2.7695 0.1835
2.77 0.1826
2.7705 0.18
2.771 0.1748
2.7715 0.1661
2.772 0.1565
2.7725 0.1468
2.773 0.1397
2.7735 0.1381
2.774 0.1394
2.7745 0.1407
2.775 0.142
2.7755 0.1384
2.776 0.1288
2.7765 0.1211
2.777 0.1194
2.7775 0.1278
2.778 0.141
2.7785 0.1494
2.779 0.1433
2.7795 0.1333
2.78 0.1233
2.7805 0.1146
2.781 0.1101
2.7815 0.1088
2.782 0.1072
2.7825 0.1091
2.783 0.1146
2.7835 0.114
2.784 0.1072
2.7845 0.1027
2.785 0.1124
2.7855 0.133
2.786 0.152
2.7865 0.16
2.787 0.1636
2.7875 0.1661
2.788 0.1642
2.7885 0.1629
2.789 0.1597
2.7895 0.1623
2.79 0.1739
2.7905 0.1858
2.791 0.188
2.7915 0.1874
2.792 0.1816
2.7925 0.1774
2.793 0.1764
2.7935 0.1784
2.794 0.1809
2.7945 0.189
2.795 0.199
2.7955 0.2022
2.796 0.1948
2.7965 0.1829
2.797 0.1745
2.7975 0.1677
2.798 0.1555
2.7985 0.1417
2.799 0.1304
2.7995 0.1204
2.8 0.1111
2.8005 0.1043
2.801 0.09755
2.8015 0.09465
2.802 0.09723
2.8025 0.1033
2.803 0.1114
2.8035 0.1182
2.804 0.1246
2.8045 0.1336
2.805 0.1423
2.8055 0.1468
2.806 0.1504
2.8065 0.161
2.807 0.1729
2.8075 0.1771
2.808 0.1739
2.8085 0.1681
2.809 0.1594
2.8095 0.1487
2.81 0.1423
2.8105 0.1401
2.811 0.1388
2.8115 0.1362
2.812 0.1349
2.8125 0.1359
2.813 0.1397
2.8135 0.1481
2.814 0.1619
2.8145 0.1742
2.815 0.178
2.8155 0.1751
2.816 0.1713
2.8165 0.1719
2.817 0.1719
2.8175 0.1671
2.818 0.1607
2.8185 0.1555
2.819 0.1523
2.8195 0.1552
2.82 0.1568
2.8205 0.1536
2.821 0.1478
2.8215 0.1429
2.822 0.1384
2.8225 0.1397
2.823 0.1426
2.8235 0.1475
2.824 0.1494
2.8245 0.1417
2.825 0.123
2.8255 0.1017
2.826 0.08693
2.8265 0.08725
2.827 0.1008
2.8275 0.1182
2.828 0.1262
2.8285 0.1307
2.829 0.1381
2.8295 0.1468
2.83 0.1513
2.8305 0.1597
2.831 0.1755
2.8315 0.1909
2.832 0.199
2.8325 0.2035
2.833 0.2057
2.8335 0.2006
2.834 0.189
2.8345 0.1813
2.835 0.179
2.8355 0.1764
2.836 0.1722
2.8365 0.1597
2.837 0.1449
2.8375 0.132
2.838 0.1259
2.8385 0.1201
2.839 0.1172
2.8395 0.1185
2.84 0.1227
2.8405 0.1275
2.841 0.1314
2.8415 0.1326
2.842 0.1352
2.8425 0.1401
2.843 0.1449
2.8435 0.152
2.844 0.1581
2.8445 0.1587
2.845 0.1568
2.8455 0.152
2.846 0.1487
2.8465 0.1481
2.847 0.1491
2.8475 0.1549
2.848 0.1639
2.8485 0.1687
2.849 0.17
2.8495 0.1668
2.85 0.1597
2.8505 0.1542
2.851 0.152
2.8515 0.1516
2.852 0.1484
2.8525 0.1426
2.853 0.1349
2.8535 0.1317
2.854 0.1333
2.8545 0.1297
2.855 0.1249
2.8555 0.1297
2.856 0.141
2.8565 0.1462
2.857 0.1455
2.8575 0.1458
2.858 0.1426
2.8585 0.1384
2.859 0.1404
2.8595 0.1452
2.86 0.1471
2.8605 0.15
2.861 0.151
2.8615 0.1491
2.862 0.1536
2.8625 0.1629
2.863 0.1684
2.8635 0.1674
2.864 0.1619
2.8645 0.1594
2.865 0.1578
2.8655 0.1536
2.866 0.1471
2.8665 0.1417
2.867 0.1397
2.8675 0.1417
2.868 0.1426
2.8685 0.1381
2.869 0.1326
2.8695 0.1288
2.87 0.133
2.8705 0.1401
2.871 0.1442
2.8715 0.1491
2.872 0.1565
2.8725 0.161
2.873 0.1619
2.8735 0.1597
2.874 0.1616
2.8745 0.1668
2.875 0.1668
2.8755 0.1632
2.876 0.1594
2.8765 0.169
2.877 0.1819
2.8775 0.1813
2.878 0.1665
2.8785 0.1491
2.879 0.1346
2.8795 0.1262
2.88 0.1249
2.8805 0.1281
2.881 0.132
2.8815 0.1352
2.882 0.1423
2.8825 0.1594
2.883 0.1694
2.8835 0.1655
2.884 0.1565
2.8845 0.1542
2.885 0.1558
2.8855 0.1542
2.886 0.1458
2.8865 0.1355
2.887 0.1307
2.8875 0.1323
2.888 0.1365
2.8885 0.1404
2.889 0.1417
2.8895 0.1471
2.89 0.1555
2.8905 0.161
2.891 0.1597
2.8915 0.1536
2.892 0.1458
2.8925 0.142
2.893 0.1462
2.8935 0.1549
2.894 0.1568
2.8945 0.1494
2.895 0.1372
2.8955 0.1278
2.896 0.1259
2.8965 0.1275
2.897 0.1326
2.8975 0.1391
2.898 0.15
2.8985 0.1597
2.899 0.161
2.8995 0.1539
2.9 0.1481
2.9005 0.1484
2.901 0.1516
2.9015 0.1539
2.902 0.1484
2.9025 0.142
2.903 0.1388
2.9035 0.1413
2.904 0.1429
2.9045 0.1497
2.905 0.1584
2.9055 0.1632
2.906 0.1661
2.9065 0.169
2.907 0.1729
2.9075 0.1745
2.908 0.1748
2.9085 0.1755
2.909 0.1755
2.9095 0.1726
2.91 0.1677
2.9105 0.1613
2.911 0.1555
2.9115 0.1568
2.912 0.1574
2.9125 0.1542
2.913 0.1491
2.9135 0.1494
2.914 0.1446
2.9145 0.1359
2.915 0.1211
2.9155 0.1104
2.916 0.1104
2.9165 0.1156
2.917 0.1223
2.9175 0.1278
2.918 0.1275
2.9185 0.1236
2.919 0.1249
2.9195 0.1326
2.92 0.1359
2.9205 0.1294
2.921 0.123
2.9215 0.1352
2.922 0.161
2.9225 0.1764
2.923 0.1751
2.9235 0.1668
2.924 0.1603
2.9245 0.1587
2.925 0.1549
2.9255 0.152
2.926 0.1513
2.9265 0.151
2.927 0.1529
2.9275 0.1613
2.928 0.1687
2.9285 0.1719
2.929 0.171
2.9295 0.1648
2.93 0.1539
2.9305 0.1455
2.931 0.1397
2.9315 0.1362
2.932 0.1397
2.9325 0.1458
2.933 0.1471
2.9335 0.1455
2.934 0.142
2.9345 0.1365
2.935 0.1372
2.9355 0.1455
2.936 0.1545
2.9365 0.159
2.937 0.1574
2.9375 0.1497
2.938 0.1468
2.9385 0.1533
2.939 0.1568
2.9395 0.1513
2.94 0.1394
2.9405 0.132
2.941 0.1326
2.9415 0.1333
2.942 0.1307
2.9425 0.1333
2.943 0.1471
2.9435 0.1619
2.944 0.1687
2.9445 0.1668
2.945 0.1574
2.9455 0.1529
2.946 0.1545
2.9465 0.1558
2.947 0.1558
2.9475 0.1578
2.948 0.1594
2.9485 0.1648
2.949 0.1748
2.9495 0.1764
2.95 0.1677
2.9505 0.1565
2.951 0.1462
2.9515 0.1359
2.952 0.1256
2.9525 0.1159
2.953 0.1088
2.9535 0.1082
2.954 0.1124
2.9545 0.1185
2.955 0.1214
2.9555 0.1236
2.956 0.1291
2.9565 0.1429
2.957 0.1642
2.9575 0.1809
2.958 0.189
2.9585 0.1909
2.959 0.1887
2.9595 0.1826
2.96 0.1716
2.9605 0.1603
2.961 0.1565
2.9615 0.1587
2.962 0.1613
2.9625 0.1619
2.963 0.1603
2.9635 0.1594
2.964 0.1584
2.9645 0.1516
2.965 0.1423
2.9655 0.1368
2.966 0.1352
2.9665 0.1323
2.967 0.1259
2.9675 0.1211
2.968 0.1201
2.9685 0.1217
2.969 0.1265
2.9695 0.1323
2.97 0.1368
2.9705 0.1359
2.971 0.1384
2.9715 0.1468
2.972 0.1533
2.9725 0.1539
2.973 0.1516
2.9735 0.1513
2.974 0.1497
2.9745 0.1494
2.975 0.1504
2.9755 0.1516
2.976 0.1552
2.9765 0.1597
2.977 0.161
2.9775 0.16
2.978 0.159
2.9785 0.1578
2.979 0.1545
2.9795 0.15
2.98 0.1484
2.9805 0.1494
2.981 0.15
2.9815 0.1497
2.982 0.152
2.9825 0.1552
2.983 0.1529
2.9835 0.1494
2.984 0.1487
2.9845 0.1481
2.985 0.1475
2.9855 0.1478
2.986 0.1526
2.9865 0.1645
2.987 0.1751
2.9875 0.1768
2.988 0.1745
2.9885 0.1729
2.989 0.17
2.9895 0.1626
2.99 0.1487
2.9905 0.1285
2.991 0.114
2.9915 0.1172
2.992 0.1291
2.9925 0.132
2.993 0.1323
2.9935 0.1346
2.994 0.1375
2.9945 0.1359
2.995 0.1281
2.9955 0.1172
2.996 0.1124
2.9965 0.1159
2.997 0.1227
2.9975 0.1288
2.998 0.1317
2.9985 0.1336
2.999 0.1446
2.9995 0.1623
3 0.1719
3.0005 0.1758
3.001 0.1822
3.0015 0.1874
3.002 0.1906
3.0025 0.1893
3.003 0.1829
3.0035 0.1761
3.004 0.171
3.0045 0.1639
3.005 0.1558
3.0055 0.1491
3.006 0.1429
3.0065 0.1368
3.007 0.1362
3.0075 0.1413
3.008 0.1487
3.0085 0.1536
3.009 0.1536
3.0095 0.1516
3.01 0.151
3.0105 0.152
3.011 0.1552
3.0115 0.1597
3.012 0.1613
3.0125 0.1623
3.013 0.1639
3.0135 0.1632
3.014 0.159
3.0145 0.1549
3.015 0.1516
3.0155 0.1497
3.016 0.1471
3.0165 0.1475
3.017 0.1507
3.0175 0.1516
3.018 0.1471
3.0185 0.1372
3.019 0.1294
3.0195 0.124
3.02 0.1162
3.0205 0.1133
3.021 0.1175
3.0215 0.122
3.022 0.1188
3.0225 0.1185
3.023 0.1243
3.0235 0.131
3.024 0.1352
3.0245 0.1413
3.025 0.1497
3.0255 0.1549
3.026 0.1571
3.0265 0.1616
3.027 0.1687
3.0275 0.1742
3.028 0.1726
3.0285 0.1616
3.029 0.1513
3.0295 0.1513
3.03 0.1587
3.0305 0.1607
3.031 0.1578
3.0315 0.1571
3.032 0.1571
3.0325 0.1581
3.033 0.1568
3.0335 0.1516
3.034 0.1429
3.0345 0.141
3.035 0.1458
3.0355 0.151
3.036 0.1529
3.0365 0.1504
3.037 0.1468
3.0375 0.1462
3.038 0.1507
3.0385 0.1533
3.039 0.1513
3.0395 0.1487
3.04 0.1484
3.0405 0.1516
3.041 0.1561
3.0415 0.1552
3.042 0.1513
3.0425 0.1468
3.043 0.1429
3.0435 0.1426
3.044 0.1413
3.0445 0.1384
3.045 0.1336
3.0455 0.1304
3.046 0.1362
3.0465 0.1529
3.047 0.1748
3.0475 0.1874
3.048 0.1861
3.0485 0.1803
3.049 0.178
3.0495 0.1768
3.05 0.1674
3.0505 0.1542
3.051 0.1494
3.0515 0.1523
3.052 0.1587
3.0525 0.1542
3.053 0.1349
3.0535 0.112
3.054 0.1001
3.0545 0.09916
3.055 0.09852
3.0555 0.09691
3.056 0.1001
3.0565 0.1117
3.057 0.1272
3.0575 0.1365
3.058 0.1404
3.0585 0.1436
3.059 0.1494
3.0595 0.1568
3.06 0.1629
3.0605 0.1684
3.061 0.1716
3.0615 0.1726
3.062 0.1745
3.0625 0.1764
3.063 0.1758
3.0635 0.1713
3.064 0.1684
3.0645 0.1665
3.065 0.1665
3.0655 0.1674
3.066 0.1661
3.0665 0.1645
3.067 0.1626
3.0675 0.1581
3.068 0.1533
3.0685 0.1497
3.069 0.1504
3.0695 0.1484
3.07 0.1471
3.0705 0.1487
3.071 0.1533
3.0715 0.1555
3.072 0.1561
3.0725 0.1581
3.073 0.159
3.0735 0.1584
3.074 0.1533
3.0745 0.1481
3.075 0.1465
3.0755 0.1462
3.076 0.1468
3.0765 0.1465
3.077 0.1471
3.0775 0.1471
3.078 0.1442
3.0785 0.1423
3.079 0.1391
3.0795 0.1352
3.08 0.133
3.0805 0.133
3.081 0.1333
3.0815 0.1336
3.082 0.1323
3.0825 0.1333
3.083 0.1362
3.0835 0.1397
3.084 0.1404
3.0845 0.1365
3.085 0.1346
3.0855 0.1372
3.086 0.1381
3.0865 0.133
3.087 0.1256
3.0875 0.1194
3.088 0.1223
3.0885 0.1304
3.089 0.1368
3.0895 0.1388
3.09 0.1372
3.0905 0.1368
3.091 0.1397
3.0915 0.142
3.092 0.1446
3.0925 0.1475
3.093 0.1552
3.0935 0.1713
3.094 0.1922
3.0945 0.2032
3.095 0.199
3.0955 0.1909
3.096 0.1871
3.0965 0.1806
3.097 0.171
3.0975 0.161
3.098 0.1536
3.0985 0.1475
3.099 0.1362
3.0995 0.1265
3.1 0.1207
3.1005 0.1172
3.101 0.1169
3.1015 0.1211
3.102 0.1233
3.1025 0.1246
3.103 0.1304
3.1035 0.142
3.104 0.1561
3.1045 0.1636
3.105 0.1665
3.1055 0.1684
3.106 0.1729
3.1065 0.1761
3.107 0.1729
3.1075 0.1706
3.108 0.17
3.1085 0.1697
3.109 0.1655
3.1095 0.1642
3.11 0.1671
3.1105 0.171
3.111 0.1671
3.1115 0.1558
3.112 0.1455
3.1125 0.1381
3.113 0.1381
3.1135 0.1417
3.114 0.1446
3.1145 0.1429
3.115 0.1384
3.1155 0.132
3.116 0.1236
3.1165 0.1194
3.117 0.1207
3.1175 0.1272
3.118 0.1359
3.1185 0.1455
3.119 0.1552
3.1195 0.1587
3.12 0.1607
3.1205 0.1636
3.121 0.1652
3.1215 0.1632
3.122 0.1597
3.1225 0.1549
3.123 0.1504
3.1235 0.1458
3.124 0.1442
3.1245 0.1413
3.125 0.1384
3.1255 0.1378
3.126 0.1426
3.1265 0.1507
3.127 0.1549
3.1275 0.1558
3.128 0.1558
3.1285 0.1561
3.129 0.1578
3.1295 0.1578
3.13 0.1584
3.1305 0.1555
3.131 0.1487
3.1315 0.1497
3.132 0.1574
3.1325 0.1578
3.133 0.1452
3.1335 0.1265
3.134 0.1124
3.1345 0.1059
3.135 0.1014
3.1355 0.09691
3.136 0.09498
3.1365 0.0953
3.137 0.09884
3.1375 0.1095
3.138 0.1227
3.1385 0.1294
3.139 0.1333
3.1395 0.1401
3.14 0.1542
3.1405 0.1706
3.141 0.178
3.1415 0.1784
3.142 0.1784
3.1425 0.1806
3.143 0.1851
3.1435 0.1903
3.144 0.1935
3.1445 0.1903
3.145 0.1858
3.1455 0.1797
3.146 0.1755
3.1465 0.171
3.147 0.1668
3.1475 0.1639
3.148 0.159
3.1485 0.1536
3.149 0.1455
3.1495 0.1326
3.15 0.1211
3.1505 0.1188
3.151 0.131
3.1515 0.1484
3.152 0.1645
3.1525 0.1809
3.153 0.1906
3.1535 0.1851
3.154 0.1684
3.1545 0.1455
3.155 0.1307
3.1555 0.124
3.156 0.1165
3.1565 0.1072
3.157 0.1037
3.1575 0.1043
3.158 0.1056
3.1585 0.1066
3.159 0.1085
3.1595 0.1185
3.16 0.1346
3.1605 0.1471
3.161 0.152
3.1615 0.1619
3.162 0.1816
3.1625 0.1974
3.163 0.1996
3.1635 0.1912
3.164 0.1854
3.1645 0.1848
3.165 0.1813
3.1655 0.1729
3.166 0.1658
3.1665 0.1607
3.167 0.15
3.1675 0.1333
3.168 0.1217
3.1685 0.1182
3.169 0.122
3.1695 0.124
3.17 0.1269
3.1705 0.1378
3.171 0.1481
3.1715 0.15
3.172 0.1555
3.1725 0.1607
3.173 0.161
3.1735 0.1584
3.174 0.16
3.1745 0.1626
3.175 0.1636
3.1755 0.16
3.176 0.1545
3.1765 0.152
3.177 0.1494
3.1775 0.1484
3.178 0.1462
3.1785 0.1452
3.179 0.1468
3.1795 0.1429
3.18 0.1394
3.1805 0.1391
3.181 0.1404
3.1815 0.1407
3.182 0.1397
3.1825 0.1394
3.183 0.141
3.1835 0.1458
3.184 0.1487
3.1845 0.1436
3.185 0.1368
3.1855 0.1372
3.186 0.141
3.1865 0.1452
3.187 0.1429
3.1875 0.1372
3.188 0.1336
3.1885 0.1394
3.189 0.1458
3.1895 0.1452
3.19 0.1394
3.1905 0.1384
3.191 0.1436
3.1915 0.1526
3.192 0.1574
3.1925 0.1565
3.193 0.1574
3.1935 0.1581
3.194 0.1571
3.1945 0.1597
3.195 0.1626
3.1955 0.1619
3.196 0.1578
3.1965 0.1526
3.197 0.1478
3.1975 0.1436
3.198 0.1433
3.1985 0.1433
3.199 0.1413
3.1995 0.1391
3.2 0.1413
3.2005 0.151
3.201 0.1619
3.2015 0.1681
3.202 0.1764
3.2025 0.1861
3.203 0.1867
3.2035 0.178
3.204 0.1665
3.2045 0.1574
3.205 0.1465
3.2055 0.132
3.206 0.1162
3.2065 0.1046
3.207 0.1037
3.2075 0.112
3.208 0.124
3.2085 0.1349
3.209 0.141
3.2095 0.1372
3.21 0.1346
3.2105 0.1446
3.211 0.1603
3.2115 0.1726
3.212 0.1777
3.2125 0.1851
3.213 0.1932
3.2135 0.1935
3.214 0.1861
3.2145 0.1764
3.215 0.1684
3.2155 0.1645
3.216 0.1645
3.2165 0.1623
3.217 0.1574
3.2175 0.1478
3.218 0.1391
3.2185 0.1317
3.219 0.1204
3.2195 0.1111
3.22 0.1156
3.2205 0.1269
3.221 0.1326
3.2215 0.1355
3.222 0.1446
3.2225 0.1574
3.223 0.1629
3.2235 0.1607
3.224 0.1558
3.2245 0.1558
3.225 0.1565
3.2255 0.1539
3.226 0.1475
3.2265 0.1449
3.227 0.1484
3.2275 0.1529
3.228 0.1549
3.2285 0.1555
3.229 0.1542
3.2295 0.1526
3.23 0.1507
3.2305 0.1497
3.231 0.1442
3.2315 0.1375
3.232 0.1336
3.2325 0.1317
3.233 0.1301
3.2335 0.1291
3.234 0.1265
3.2345 0.1256
3.235 0.1269
3.2355 0.1272
3.236 0.1269
3.2365 0.1285
3.237 0.1339
3.2375 0.1468
3.238 0.1603
3.2385 0.1674
3.239 0.1713
3.2395 0.1739
3.24 0.1713
3.2405 0.1648
3.241 0.1581
3.2415 0.1536
3.242 0.1494
3.2425 0.1426
3.243 0.1407
3.2435 0.1413
3.244 0.1401
3.2445 0.1378
3.245 0.1378
3.2455 0.1407
3.246 0.1458
3.2465 0.1487
3.247 0.1542
3.2475 0.1661
3.248 0.1768
3.2485 0.1787
3.249 0.1742
3.2495 0.1706
3.25 0.1677
3.2505 0.1671
3.251 0.1713
3.2515 0.1787
3.252 0.1751
3.2525 0.1626
3.253 0.1471
3.2535 0.1362
3.254 0.1326
3.2545 0.1314
3.255 0.1297
3.2555 0.1246
3.256 0.1175
3.2565 0.1095
3.257 0.1066
3.2575 0.1082
3.258 0.1178
3.2585 0.1343
3.259 0.151
3.2595 0.1671
3.26 0.1797
3.2605 0.1826
3.261 0.1764
3.2615 0.1713
3.262 0.1684
3.2625 0.1684
3.263 0.1655
3.2635 0.161
3.264 0.1526
3.2645 0.1458
3.265 0.1426
3.2655 0.1394
3.266 0.1362
3.2665 0.1391
3.267 0.1436
3.2675 0.1458
3.268 0.1475
3.2685 0.1497
3.269 0.1471
3.2695 0.1388
3.27 0.1301
3.2705 0.1275
3.271 0.1323
3.2715 0.142
3.272 0.1465
3.2725 0.1458
3.273 0.1481
3.2735 0.1516
3.274 0.1516
3.2745 0.1516
3.275 0.1584
3.2755 0.1645
3.276 0.1706
3.2765 0.1755
3.277 0.1806
3.2775 0.1842
3.278 0.1851
3.2785 0.1842
3.279 0.1768
3.2795 0.1655
3.28 0.1545
3.2805 0.1439
3.281 0.1362
3.2815 0.1288
3.282 0.1249
3.2825 0.1191
3.283 0.1114
3.2835 0.1075
3.284 0.1079
3.2845 0.1101
3.285 0.1188
3.2855 0.1294
3.286 0.1397
3.2865 0.1504
3.287 0.1597
3.2875 0.1623
3.288 0.1642
3.2885 0.1674
3.289 0.1684
3.2895 0.1674
3.29 0.1687
3.2905 0.1697
3.291 0.1697
3.2915 0.1668
3.292 0.1626
3.2925 0.1565
3.293 0.1536
3.2935 0.1504
3.294 0.1481
3.2945 0.1494
3.295 0.1536
3.2955 0.1516
3.296 0.1449
3.2965 0.1397
3.297 0.1413
3.2975 0.1507
3.298 0.1642
3.2985 0.1732
3.299 0.1748
3.2995 0.1652
3.3 0.1465
3.3005 0.1262
3.301 0.114
3.3015 0.103
3.302 0.0924
3.3025 0.08339
3.303 0.08274
3.3035 0.08982
3.304 0.104
3.3045 0.1236
3.305 0.1436
3.3055 0.1603
3.306 0.1636
3.3065 0.1597
3.307 0.1613
3.3075 0.1687
3.308 0.1761
3.3085 0.1822
3.309 0.1858
3.3095 0.1877
3.31 0.1867
3.3105 0.1832
3.311 0.1806
3.3115 0.178
3.312 0.1706
3.3125 0.1652
3.313 0.161
3.3135 0.1568
3.314 0.1516
3.3145 0.1452
3.315 0.1394
3.3155 0.1339
3.316 0.1294
3.3165 0.1233
3.317 0.1204
3.3175 0.1214
3.318 0.1191
3.3185 0.1159
3.319 0.1223
3.3195 0.1362
3.32 0.1487
3.3205 0.1555
3.321 0.161
3.3215 0.1687
3.322 0.1748
3.3225 0.1819
3.323 0.19
3.3235 0.1912
3.324 0.1851
3.3245 0.1748
3.325 0.1629
3.3255 0.1516
3.326 0.1484
3.3265 0.15
3.327 0.1545
3.3275 0.1574
3.328 0.1539
3.3285 0.1452
3.329 0.1349
3.3295 0.1252
3.33 0.1172
3.3305 0.1104
3.331 0.1043
3.3315 0.1027
3.332 0.1104
3.3325 0.1233
3.333 0.1339
3.3335 0.1359
3.334 0.1372
3.3345 0.1523
3.335 0.179
3.3355 0.1932
3.336 0.1883
3.3365 0.1761
3.337 0.1677
3.3375 0.16
3.338 0.1475
3.3385 0.1349
3.339 0.1301
3.3395 0.1278
3.34 0.123
3.3405 0.1191
3.341 0.1188
3.3415 0.1159
3.342 0.1114
3.3425 0.113
3.343 0.1194
3.3435 0.132
3.344 0.1439
3.3445 0.152
3.345 0.1558
3.3455 0.1558
3.346 0.1574
3.3465 0.1719
3.347 0.1919
3.3475 0.2061
3.348 0.2144
3.3485 0.217
3.349 0.2096
3.3495 0.1961
3.35 0.179
3.3505 0.1665
3.351 0.1578
3.3515 0.1507
3.352 0.1368
3.3525 0.124
3.353 0.1204
3.3535 0.124
3.354 0.1291
3.3545 0.1314
3.355 0.133
3.3555 0.1388
3.356 0.1433
3.3565 0.1442
3.357 0.1413
3.3575 0.1413
3.358 0.142
3.3585 0.1455
3.359 0.1523
3.3595 0.1578
3.36 0.1568
3.3605 0.152
3.361 0.1507
3.3615 0.1542
3.362 0.1561
3.3625 0.1574
3.363 0.1571
3.3635 0.1597
3.364 0.1636
3.3645 0.1636
3.365 0.1607
3.3655 0.1584
3.366 0.1558
3.3665 0.151
3.367 0.1372
3.3675 0.1223
3.368 0.1169
3.3685 0.1211
3.369 0.1294
3.3695 0.1336
3.37 0.1333
3.3705 0.1323
3.371 0.1317
3.3715 0.1368
3.372 0.1526
3.3725 0.1671
3.373 0.1713
3.3735 0.1652
3.374 0.1561
3.3745 0.1494
3.375 0.1462
3.3755 0.1462
3.376 0.1442
3.3765 0.1384
3.377 0.1281
3.3775 0.1233
3.378 0.1243
3.3785 0.1246
3.379 0.1227
3.3795 0.1169
3.38 0.1162
3.3805 0.1333
3.381 0.1558
3.3815 0.1684
3.382 0.1722
3.3825 0.1745
3.383 0.1742
3.3835 0.1706
3.384 0.1661
3.3845 0.1629
3.385 0.1613
3.3855 0.1574
3.386 0.1542
3.3865 0.1536
3.387 0.151
3.3875 0.1523
3.388 0.159
3.3885 0.1652
3.389 0.1668
3.3895 0.1642
3.39 0.159
3.3905 0.1555
3.391 0.1539
3.3915 0.1542
3.392 0.1491
3.3925 0.141
3.393 0.1352
3.3935 0.1349
3.394 0.1375
3.3945 0.1394
3.395 0.141
3.3955 0.1446
3.396 0.1491
3.3965 0.1523
3.397 0.1484
3.3975 0.1458
3.398 0.152
3.3985 0.1648
3.399 0.1726
3.3995 0.1703
3.4 0.1661
3.4005 0.1613
3.401 0.1578
3.4015 0.1536
3.402 0.1536
3.4025 0.1581
3.403 0.1597
3.4035 0.1549
3.404 0.1468
3.4045 0.1339
3.405 0.1191
3.4055 0.1079
3.406 0.104
3.4065 0.1059
3.407 0.1101
3.4075 0.1162
3.408 0.1204
3.4085 0.1262
3.409 0.1297
3.4095 0.131
3.41 0.1378
3.4105 0.1507
3.411 0.1616
3.4115 0.1661
3.412 0.1665
3.4125 0.1694
3.413 0.1764
3.4135 0.1816
3.414 0.1819
3.4145 0.1784
3.415 0.1732
3.4155 0.1674
3.416 0.1639
3.4165 0.1645
3.417 0.1655
3.4175 0.1652
3.418 0.1594
3.4185 0.1552
3.419 0.1552
3.4195 0.1523
3.42 0.1436
3.4205 0.1381
3.421 0.1375
3.4215 0.1391
3.422 0.1384
3.4225 0.1375
3.423 0.1384
3.4235 0.1407
3.424 0.1455
3.4245 0.1497
3.425 0.1558
3.4255 0.1642
3.426 0.1694
3.4265 0.1652
3.427 0.1552
3.4275 0.1446
3.428 0.1355
3.4285 0.131
3.429 0.1297
3.4295 0.131
3.43 0.1339
3.4305 0.1378
3.431 0.1359
3.4315 0.1285
3.432 0.1207
3.4325 0.1201
3.433 0.1249
3.4335 0.1272
3.434 0.1246
3.4345 0.1217
3.435 0.1223
3.4355 0.1307
3.436 0.1384
3.4365 0.1359
3.437 0.1326
3.4375 0.1372
3.438 0.1491
3.4385 0.1655
3.439 0.1764
3.4395 0.1797
3.44 0.1806
3.4405 0.1848
3.441 0.1867
3.4415 0.1861
3.442 0.1861
3.4425 0.1854
3.443 0.1819
3.4435 0.18
3.444 0.1787
3.4445 0.178
3.445 0.1739
3.4455 0.1668
3.446 0.1603
3.4465 0.1536
3.447 0.1484
3.4475 0.1446
3.448 0.1381
3.4485 0.1339
3.449 0.1333
3.4495 0.1339
3.45 0.1307
3.4505 0.1294
3.451 0.1294
3.4515 0.1291
3.452 0.1262
3.4525 0.1281
3.453 0.1391
3.4535 0.1494
3.454 0.1542
3.4545 0.1571
3.455 0.1558
3.4555 0.1516
3.456 0.15
3.4565 0.1513
3.457 0.1487
3.4575 0.1439
3.458 0.1391
3.4585 0.1413
3.459 0.1475
3.4595 0.1523
3.46 0.1561
3.4605 0.1587
3.461 0.1552
3.4615 0.1455
3.462 0.1378
3.4625 0.1352
3.463 0.1413
3.4635 0.1504
3.464 0.1526
3.4645 0.1497
3.465 0.1458
3.4655 0.1417
3.466 0.1394
3.4665 0.1439
3.467 0.152
3.4675 0.1568
3.468 0.1565
3.4685 0.1565
3.469 0.159
3.4695 0.1639
3.47 0.1661
3.4705 0.1616
3.471 0.1568
3.4715 0.1565
3.472 0.1594
3.4725 0.1607
3.473 0.1578
3.4735 0.15
3.474 0.1426
3.4745 0.1372
3.475 0.1278
3.4755 0.1143
3.476 0.1043
3.4765 0.09981
3.477 0.1037
3.4775 0.113
3.478 0.1233
3.4785 0.1291
3.479 0.1314
3.4795 0.1362
3.48 0.1436
3.4805 0.1539
3.481 0.1645
3.4815 0.1739
3.482 0.1761
3.4825 0.1771
3.483 0.1829
3.4835 0.1948
3.484 0.2064
3.4845 0.2061
3.485 0.1941
3.4855 0.1787
3.486 0.1639
3.4865 0.151
3.487 0.1426
3.4875 0.133
3.488 0.1262
3.4885 0.1204
3.489 0.1178
3.4895 0.1149
3.49 0.1178
3.4905 0.1262
3.491 0.1326
3.4915 0.1455
3.492 0.1584
3.4925 0.1645
3.493 0.1677
3.4935 0.1793
3.494 0.1916
3.4945 0.1912
3.495 0.18
3.4955 0.1652
3.496 0.1542
3.4965 0.1465
3.497 0.1368
3.4975 0.1269
3.498 0.1207
3.4985 0.1175
3.499 0.1156
3.4995 0.1153
3.5 0.113
3.5005 0.1156
3.501 0.1246
3.5015 0.1362
3.502 0.1513
3.5025 0.1648
3.503 0.1652
3.5035 0.1581
3.504 0.1533
3.5045 0.1549
3.505 0.1581
3.5055 0.1616
3.506 0.1629
3.5065 0.1587
3.507 0.1533
3.5075 0.1513
3.508 0.151
3.5085 0.1504
3.509 0.1529
3.5095 0.1613
3.51 0.1697
3.5105 0.171
3.511 0.1652
3.5115 0.159
3.512 0.1558
3.5125 0.1565
3.513 0.161
3.5135 0.1626
3.514 0.1542
3.5145 0.1452
3.515 0.142
3.5155 0.1449
3.516 0.1471
3.5165 0.1433
3.517 0.1349
3.5175 0.1265
3.518 0.1214
3.5185 0.1256
3.519 0.1355
3.5195 0.1404
3.52 0.1397
3.5205 0.1397
3.521 0.1404
3.5215 0.141
3.522 0.1449
3.5225 0.151
3.523 0.1536
3.5235 0.15
3.524 0.1465
3.5245 0.141
3.525 0.1391
3.5255 0.1417
3.526 0.1475
3.5265 0.1523
3.527 0.1542
3.5275 0.1552
3.528 0.1552
3.5285 0.1574
3.529 0.1581
3.5295 0.1574
3.53 0.1584
3.5305 0.1594
3.531 0.159
3.5315 0.1574
3.532 0.1549
3.5325 0.1513
3.533 0.1504
3.5335 0.15
3.534 0.1484
3.5345 0.1458
3.535 0.1484
3.5355 0.1484
3.536 0.1452
3.5365 0.141
3.537 0.1346
3.5375 0.1278
3.538 0.1233
3.5385 0.1246
3.539 0.1317
3.5395 0.1362
3.54 0.1378
3.5405 0.1413
3.541 0.1491
3.5415 0.1542
3.542 0.1587
3.5425 0.1642
3.543 0.1671
3.5435 0.1652
3.544 0.1655
3.5445 0.1684
3.545 0.1671
3.5455 0.1645
3.546 0.1642
3.5465 0.1616
3.547 0.1568
3.5475 0.1487
3.548 0.1381
3.5485 0.133
3.549 0.133
3.5495 0.1352
3.55 0.1368
3.5505 0.1378
3.551 0.1378
3.5515 0.1381
3.552 0.1478
3.5525 0.1626
3.553 0.1726
3.5535 0.1687
3.554 0.161
3.5545 0.1568
3.555 0.1555
3.5555 0.1552
3.556 0.1545
3.5565 0.1613
3.557 0.1648
3.5575 0.1581
3.558 0.1446
3.5585 0.1304
3.559 0.1217
3.5595 0.1188
3.56 0.1169
3.5605 0.1178
3.561 0.1185
3.5615 0.1169
3.562 0.1185
3.5625 0.1285
3.563 0.1368
3.5635 0.1391
3.564 0.1468
3.5645 0.1636
3.565 0.1768
3.5655 0.1787
3.566 0.1742
3.5665 0.169
3.567 0.1674
3.5675 0.1674
3.568 0.1671
3.5685 0.1687
3.569 0.1735
3.5695 0.1774
3.57 0.1758
3.5705 0.1697
3.571 0.1613
3.5715 0.15
3.572 0.1391
3.5725 0.1323
3.573 0.1333
3.5735 0.1394
3.574 0.1481
3.5745 0.1542
3.575 0.1565
3.5755 0.1558
3.576 0.1513
3.5765 0.1465
3.577 0.1449
3.5775 0.1449
3.578 0.1429
3.5785 0.1394
3.579 0.1346
3.5795 0.1326
3.58 0.1375
3.5805 0.142
3.581 0.1429
3.5815 0.1417
3.582 0.1384
3.5825 0.1417
3.583 0.1513
3.5835 0.1561
3.584 0.1513
3.5845 0.1439
3.585 0.1449
3.5855 0.1526
3.586 0.161
3.5865 0.1648
3.587 0.1636
3.5875 0.16
3.588 0.1607
3.5885 0.1629
3.589 0.1613
3.5895 0.1558
3.59 0.1465
3.5905 0.141
3.591 0.1401
3.5915 0.1417
3.592 0.1423
3.5925 0.1436
3.593 0.1545
3.5935 0.1652
3.594 0.1636
3.5945 0.1539
3.595 0.1442
3.5955 0.1349
3.596 0.1275
3.5965 0.1211
3.597 0.1149
3.5975 0.1104
3.598 0.1088
3.5985 0.1108
3.599 0.1133
3.5995 0.1162
3.6 0.1307
3.6005 0.1549
3.601 0.1729
3.6015 0.1806
3.602 0.1803
3.6025 0.1758
3.603 0.1719
3.6035 0.1684
3.604 0.1594
3.6045 0.1468
3.605 0.1378
3.6055 0.1368
3.606 0.1317
3.6065 0.1194
3.607 0.1133
3.6075 0.1146
3.608 0.1172
3.6085 0.1191
3.609 0.1265
3.6095 0.142
3.61 0.1571
3.6105 0.1671
3.611 0.1768
3.6115 0.1877
3.612 0.1964
3.6125 0.1977
3.613 0.1922
3.6135 0.1842
3.614 0.179
3.6145 0.1768
3.615 0.1761
3.6155 0.1739
3.616 0.1697
3.6165 0.1645
3.617 0.1603
3.6175 0.1584
3.618 0.1594
3.6185 0.1597
3.619 0.16
3.6195 0.1607
3.62 0.159
3.6205 0.1558
3.621 0.1542
3.6215 0.1545
3.622 0.1504
3.6225 0.1433
3.623 0.1365
3.6235 0.1333
3.624 0.131
3.6245 0.1256
3.625 0.123
3.6255 0.1256
3.626 0.133
3.6265 0.1349
3.627 0.133
3.6275 0.1378
3.628 0.1478
3.6285 0.1542
3.629 0.152
3.6295 0.1439
3.63 0.1375
3.6305 0.1323
3.631 0.1281
3.6315 0.1207
3.632 0.1127
3.6325 0.1104
3.633 0.1098
3.6335 0.1114
3.634 0.1133
3.6345 0.1133
3.635 0.1204
3.6355 0.1394
3.636 0.1574
3.6365 0.1616
3.637 0.1578
3.6375 0.1568
3.638 0.159
3.6385 0.1574
3.639 0.1529
3.6395 0.1536
3.64 0.1574
3.6405 0.1626
3.641 0.1639
3.6415 0.1655
3.642 0.169
3.6425 0.1764
3.643 0.1874
3.6435 0.1977
3.644 0.2006
3.6445 0.1948
3.645 0.1864
3.6455 0.1793
3.646 0.1726
3.6465 0.1661
3.647 0.1581
3.6475 0.1507
3.648 0.1475
3.6485 0.1442
3.649 0.1375
3.6495 0.1314
3.65 0.1291
3.6505 0.1304
3.651 0.1336
3.6515 0.1362
3.652 0.1481
3.6525 0.1626
3.653 0.1629
3.6535 0.1494
3.654 0.1362
3.6545 0.1317
3.655 0.1352
3.6555 0.1391
3.656 0.1391
3.6565 0.1359
3.657 0.1301
3.6575 0.1249
3.658 0.1201
3.6585 0.1124
3.659 0.1111
3.6595 0.1262
3.66 0.1436
3.6605 0.1516
3.661 0.1507
3.6615 0.1449
3.662 0.1394
3.6625 0.1401
3.663 0.1439
3.6635 0.1494
3.664 0.1552
3.6645 0.1629
3.665 0.1642
3.6655 0.1619
3.666 0.1623
3.6665 0.1677
3.667 0.1722
3.6675 0.1726
3.668 0.17
3.6685 0.1645
3.669 0.1616
3.6695 0.161
3.67 0.1581
3.6705 0.1539
3.671 0.152
3.6715 0.1555
3.672 0.1571
3.6725 0.1545
3.673 0.1513
3.6735 0.152
3.674 0.1526
3.6745 0.1487
3.675 0.1436
3.6755 0.1381
3.676 0.1336
3.6765 0.1307
3.677 0.1294
3.6775 0.1314
3.678 0.1336
3.6785 0.132
3.679 0.1352
3.6795 0.1439
3.68 0.1536
3.6805 0.1607
3.681 0.1674
3.6815 0.1697
3.682 0.1674
3.6825 0.1603
3.683 0.1542
3.6835 0.1507
3.684 0.1516
3.6845 0.152
3.685 0.1455
3.6855 0.1378
3.686 0.132
3.6865 0.1304
3.687 0.1301
3.6875 0.1301
3.688 0.1291
3.6885 0.1294
3.689 0.1326
3.6895 0.1355
3.69 0.1397
3.6905 0.1465
3.691 0.1539
3.6915 0.1603
3.692 0.1623
3.6925 0.1642
3.693 0.1677
3.6935 0.171
3.694 0.1732
3.6945 0.1742
3.695 0.1735
3.6955 0.1648
3.696 0.1542
3.6965 0.1458
3.697 0.1397
3.6975 0.1352
3.698 0.1346
3.6985 0.1336
3.699 0.1278
3.6995 0.122
3.7 0.1198
3.7005 0.1172
3.701 0.1156
3.7015 0.1233
3.702 0.141
3.7025 0.1523
3.703 0.1526
3.7035 0.151
3.704 0.1571
3.7045 0.1658
3.705 0.1722
3.7055 0.1771
3.706 0.1819
3.7065 0.1851
3.707 0.1861
3.7075 0.1854
3.708 0.1842
3.7085 0.1819
3.709 0.1806
3.7095 0.1813
3.71 0.1787
3.7105 0.1726
3.711 0.1642
3.7115 0.1539
3.712 0.1429
3.7125 0.1323
3.713 0.1256
3.7135 0.1194
3.714 0.114
3.7145 0.1066
3.715 0.09981
3.7155 0.105
3.716 0.1169
3.7165 0.1304
3.717 0.1384
3.7175 0.1391
3.718 0.1378
3.7185 0.1429
3.719 0.152
3.7195 0.1594
3.72 0.1639
3.7205 0.1632
3.721 0.1597
3.7215 0.16
3.722 0.1619
3.7225 0.1616
3.723 0.1632
3.7235 0.1636
3.724 0.1597
3.7245 0.1487
3.725 0.1397
3.7255 0.1346
3.726 0.1314
3.7265 0.1291
3.727 0.131
3.7275 0.1407
3.728 0.1458
3.7285 0.1401
3.729 0.132
3.7295 0.1323
3.73 0.1381
3.7305 0.142
3.731 0.1407
3.7315 0.1368
3.732 0.1375
3.7325 0.1413
3.733 0.1429
3.7335 0.1423
3.734 0.1436
3.7345 0.152
3.735 0.1648
3.7355 0.1735
3.736 0.1726
3.7365 0.1665
3.737 0.161
3.7375 0.1561
3.738 0.15
3.7385 0.1423
3.739 0.1381
3.7395 0.1397
3.74 0.1442
3.7405 0.1484
3.741 0.1465
3.7415 0.1433
3.742 0.1433
3.7425 0.1429
3.743 0.1494
3.7435 0.1607
3.744 0.169
3.7445 0.178
3.745 0.1858
3.7455 0.1871
3.746 0.1842
3.7465 0.18
3.747 0.1803
3.7475 0.1842
3.748 0.1842
3.7485 0.1777
3.749 0.1684
3.7495 0.1694
3.75 0.1732
3.7505 0.1687
3.751 0.1555
3.7515 0.1404
3.752 0.1265
3.7525 0.1182
3.753 0.1149
3.7535 0.1104
3.754 0.1037
3.7545 0.09691
3.755 0.09852
3.7555 0.1066
3.756 0.1124
3.7565 0.1178
3.757 0.1252
3.7575 0.1365
3.758 0.1471
3.7585 0.1516
3.759 0.1516
3.7595 0.1497
3.76 0.1516
3.7605 0.1561
3.761 0.1594
3.7615 0.1607
3.762 0.1565
3.7625 0.1526
3.763 0.1478
3.7635 0.1446
3.764 0.142
3.7645 0.1388
3.765 0.1375
3.7655 0.1423
3.766 0.1497
3.7665 0.1533
3.767 0.1565
3.7675 0.159
3.768 0.1597
3.7685 0.16
3.769 0.1613
3.7695 0.1626
3.77 0.1642
3.7705 0.1652
3.771 0.1658
3.7715 0.1665
3.772 0.1655
3.7725 0.1597
3.773 0.1549
3.7735 0.1552
3.774 0.1561
3.7745 0.1516
3.775 0.1442
3.7755 0.1404
3.776 0.1436
3.7765 0.1462
3.777 0.141
3.7775 0.1375
3.778 0.1397
3.7785 0.1491
3.779 0.1529
3.7795 0.1471
3.78 0.1391
3.7805 0.1346
3.781 0.1314
3.7815 0.1281
3.782 0.1304
3.7825 0.1362
3.783 0.1397
3.7835 0.1426
3.784 0.142
3.7845 0.1404
3.785 0.1407
3.7855 0.1436
3.786 0.1484
3.7865 0.1571
3.787 0.1658
3.7875 0.1739
3.788 0.178
3.7885 0.1761
3.789 0.1665
3.7895 0.1565
3.79 0.1526
3.7905 0.1475
3.791 0.1384
3.7915 0.133
3.792 0.1323
3.7925 0.1339
3.793 0.1352
3.7935 0.1323
3.794 0.1307
3.7945 0.1323
3.795 0.1343
3.7955 0.1378
3.796 0.1471
3.7965 0.1536
3.797 0.1568
3.7975 0.1568
3.798 0.1587
3.7985 0.1613
3.799 0.161
3.7995 0.159
3.8 0.1558
3.8005 0.1542
3.801 0.1526
3.8015 0.15
3.802 0.1484
3.8025 0.1507
3.803 0.151
3.8035 0.152
3.804 0.1523
3.8045 0.1542
3.805 0.1555
3.8055 0.1571
3.806 0.1565
3.8065 0.1549
3.807 0.1523
3.8075 0.1497
3.808 0.1478
3.8085 0.15
3.809 0.151
3.8095 0.1491
3.81 0.1455
3.8105 0.1442
3.811 0.1475
3.8115 0.1484
3.812 0.1484
3.8125 0.1475
3.813 0.1462
3.8135 0.1436
3.814 0.141
3.8145 0.1407
3.815 0.1439
3.8155 0.15
3.816 0.1542
3.8165 0.1539
3.817 0.1516
3.8175 0.152
3.818 0.1555
3.8185 0.1584
3.819 0.1581
3.8195 0.1545
3.82 0.15
3.8205 0.1504
3.821 0.1561
3.8215 0.1626
3.822 0.1658
3.8225 0.1652
3.823 0.1568
3.8235 0.1446
3.824 0.1439
3.8245 0.1526
3.825 0.1494
3.8255 0.1339
3.826 0.1198
3.8265 0.1108
3.827 0.104
3.8275 0.09916
3.828 0.09433
3.8285 0.0895
3.829 0.09208
3.8295 0.1066
3.83 0.124
3.8305 0.1336
3.831 0.1384
3.8315 0.1504
3.832 0.1674
3.8325 0.1806
3.833 0.1909
3.8335 0.1958
3.834 0.197
3.8345 0.1983
3.835 0.1983
3.8355 0.1929
3.836 0.1819
3.8365 0.17
3.837 0.161
3.8375 0.1549
3.838 0.1487
3.8385 0.1487
3.839 0.1458
3.8395 0.1352
3.84 0.1252
3.8405 0.123
3.841 0.1233
3.8415 0.1198
3.842 0.1178
3.8425 0.1204
3.843 0.1272
3.8435 0.1352
3.844 0.1442
3.8445 0.1504
3.845 0.1497
3.8455 0.1478
3.846 0.1481
3.8465 0.1504
3.847 0.1555
3.8475 0.161
3.848 0.1661
3.8485 0.1681
3.849 0.1674
3.8495 0.1706
3.85 0.1768
3.8505 0.1822
3.851 0.1906
3.8515 0.1954
3.852 0.1945
3.8525 0.1893
3.853 0.189
3.8535 0.1993
3.854 0.208
3.8545 0.2022
3.855 0.1835
3.8555 0.1603
3.856 0.1394
3.8565 0.1201
3.857 0.1021
3.8575 0.08661
3.858 0.07534
3.8585 0.07179
3.859 0.07212
3.8595 0.07759
3.86 0.08886
3.8605 0.1033
3.861 0.113
3.8615 0.1223
3.862 0.1346
3.8625 0.1487
3.863 0.1584
3.8635 0.1674
3.864 0.1793
3.8645 0.1883
3.865 0.1832
3.8655 0.169
3.866 0.1545
3.8665 0.1426
3.867 0.1349
3.8675 0.1281
3.868 0.1214
3.8685 0.1182
3.869 0.1198
3.8695 0.1272
3.87 0.1314
3.8705 0.1339
3.871 0.1426
3.8715 0.1578
3.872 0.1697
3.8725 0.1742
3.873 0.1722
3.8735 0.1665
3.874 0.1626
3.8745 0.1639
3.875 0.1636
3.8755 0.1584
3.876 0.1552
3.8765 0.1549
3.877 0.1542
3.8775 0.1545
3.878 0.1565
3.8785 0.1626
3.879 0.1668
3.8795 0.1674
3.88 0.1639
3.8805 0.1587
3.881 0.1504
3.8815 0.1458
3.882 0.1471
3.8825 0.1536
3.883 0.1613
3.8835 0.1619
3.884 0.1561
3.8845 0.1494
3.885 0.1423
3.8855 0.1352
3.886 0.1243
3.8865 0.1098
3.887 0.09691
3.8875 0.0953
3.888 0.1014
3.8885 0.1085
3.889 0.1137
3.8895 0.122
3.89 0.1323
3.8905 0.1394
3.891 0.1446
3.8915 0.1533
3.892 0.1687
3.8925 0.1784
3.893 0.1797
3.8935 0.1758
3.894 0.1729
3.8945 0.1719
3.895 0.1722
3.8955 0.1719
3.896 0.1716
3.8965 0.1674
3.897 0.1594
3.8975 0.1523
3.898 0.1504
3.8985 0.1542
3.899 0.1549
3.8995 0.1545
3.9 0.1552
3.9005 0.1561
3.901 0.159
3.9015 0.1632
3.902 0.1632
3.9025 0.1581
3.903 0.1478
3.9035 0.1388
3.904 0.1397
3.9045 0.1462
3.905 0.1523
3.9055 0.1539
3.906 0.1516
3.9065 0.1455
3.907 0.1401
3.9075 0.1381
3.908 0.1372
3.9085 0.1362
3.909 0.1343
3.9095 0.1314
3.91 0.1265
3.9105 0.1243
3.911 0.1275
3.9115 0.1355
3.912 0.1404
3.9125 0.1407
3.913 0.1417
3.9135 0.1417
3.914 0.1381
3.9145 0.1378
3.915 0.1397
3.9155 0.1433
3.916 0.1455
3.9165 0.1452
3.917 0.1481
3.9175 0.1555
3.918 0.1661
3.9185 0.171
3.919 0.1697
3.9195 0.1652
3.92 0.1584
3.9205 0.1523
3.921 0.151
3.9215 0.152
3.922 0.1545
3.9225 0.1507
3.923 0.1439
3.9235 0.1394
3.924 0.1352
3.9245 0.1346
3.925 0.1413
3.9255 0.1481
3.926 0.1491
3.9265 0.1468
3.927 0.1462
3.9275 0.1529
3.928 0.1674
3.9285 0.1729
3.929 0.1629
3.9295 0.1513
3.93 0.1413
3.9305 0.1339
3.931 0.1278
3.9315 0.1256
3.932 0.1326
3.9325 0.1446
3.933 0.1491
3.9335 0.1465
3.934 0.1462
3.9345 0.1475
3.935 0.1574
3.9355 0.17
3.936 0.1758
3.9365 0.1729
3.937 0.1684
3.9375 0.1632
3.938 0.1574
3.9385 0.1542
3.939 0.1542
3.9395 0.1561
3.94 0.1584
3.9405 0.1594
3.941 0.1561
3.9415 0.1494
3.942 0.1394
3.9425 0.1317
3.943 0.1297
3.9435 0.1304
3.944 0.1333
3.9445 0.1394
3.945 0.1478
3.9455 0.1565
3.946 0.1597
3.9465 0.1542
3.947 0.1478
3.9475 0.1446
3.948 0.1426
3.9485 0.1417
3.949 0.141
3.9495 0.1433
3.95 0.1471
3.9505 0.1497
3.951 0.1471
3.9515 0.1446
3.952 0.1462
3.9525 0.15
3.953 0.1565
3.9535 0.1655
3.954 0.1681
3.9545 0.1655
3.955 0.1668
3.9555 0.1648
3.956 0.1571
3.9565 0.1468
3.957 0.1426
3.9575 0.1397
3.958 0.1365
3.9585 0.1349
3.959 0.1413
3.9595 0.16
3.96 0.1674
3.9605 0.16
3.961 0.1478
3.9615 0.1436
3.962 0.1426
3.9625 0.1368
3.963 0.1297
3.9635 0.1243
3.964 0.122
3.9645 0.1217
3.965 0.1285
3.9655 0.1388
3.966 0.1462
3.9665 0.1423
3.967 0.1352
3.9675 0.1355
3.968 0.1417
3.9685 0.1458
3.969 0.142
3.9695 0.1378
3.97 0.1413
3.9705 0.1481
3.971 0.1523
3.9715 0.1487
3.972 0.1446
3.9725 0.1423
3.973 0.1429
3.9735 0.1487
3.974 0.159
3.9745 0.1658
3.975 0.1671
3.9755 0.1677
3.976 0.1665
3.9765 0.1642
3.977 0.1729
3.9775 0.1864
3.978 0.1922
3.9785 0.1877
3.979 0.1771
3.9795 0.1639
3.98 0.1484
3.9805 0.1323
3.981 0.1178
3.9815 0.1098
3.982 0.1108
3.9825 0.1133
3.983 0.1159
3.9835 0.1124
3.984 0.105
3.9845 0.1082
3.985 0.1256
3.9855 0.1465
3.986 0.159
3.9865 0.1613
3.987 0.1629
3.9875 0.1677
3.988 0.1726
3.9885 0.1748
3.989 0.1751
3.9895 0.1755
3.99 0.1758
3.9905 0.1745
3.991 0.1729
3.9915 0.1742
3.992 0.1735
3.9925 0.1668
3.993 0.1597
3.9935 0.1578
3.994 0.1587
3.9945 0.1613
3.995 0.1623
3.9955 0.1607
3.996 0.1568
3.9965 0.1539
3.997 0.1529
3.9975 0.1558
3.998 0.1571
3.9985 0.1568
3.999 0.1536
3.9995 0.1471
4 0.1439
4.0005 0.1417
4.001 0.1375
4.0015 0.1294
4.002 0.123
4.0025 0.1175
4.003 0.1114
4.0035 0.1046
4.004 0.09916
4.0045 0.09916
4.005 0.1001
4.0055 0.1046
4.006 0.1156
4.0065 0.1269
4.007 0.1326
4.0075 0.1365
4.008 0.142
4.0085 0.1458
4.009 0.1465
4.0095 0.1484
4.01 0.1584
4.0105 0.1703
4.011 0.1787
4.0115 0.1761
4.012 0.1697
4.0125 0.1713
4.013 0.1806
4.0135 0.1874
4.014 0.1929
4.0145 0.2028
4.015 0.2144
4.0155 0.2154
4.016 0.1996
4.0165 0.171
4.017 0.1391
4.0175 0.1104
4.018 0.08821
4.0185 0.07501
4.019 0.07308
4.0195 0.07823
4.02 0.08306
4.0205 0.08467
4.021 0.09015
4.0215 0.09948
4.022 0.1088
4.0225 0.1201
4.023 0.1336
4.0235 0.1478
4.024 0.1561
4.0245 0.1639
4.025 0.1784
4.0255 0.1929
4.026 0.1986
4.0265 0.1961
4.027 0.1871
4.0275 0.1826
4.028 0.1851
4.0285 0.1861
4.029 0.1819
4.0295 0.1793
4.03 0.1813
4.0305 0.1835
4.031 0.18
4.0315 0.1764
4.032 0.1748
4.0325 0.1813
4.033 0.1909
4.0335 0.1977
4.034 0.1922
4.0345 0.1774
4.035 0.1636
4.0355 0.1475
4.036 0.1301
4.0365 0.1146
4.037 0.1021
4.0375 0.09594
4.038 0.09659
4.0385 0.09755
4.039 0.09723
4.0395 0.09562
4.04 0.1021
4.0405 0.1133
4.041 0.1211
4.0415 0.1265
4.042 0.1378
4.0425 0.1471
4.043 0.15
4.0435 0.15
4.044 0.151
4.0445 0.1529
4.045 0.1565
4.0455 0.1578
4.046 0.1574
4.0465 0.1574
4.047 0.1574
4.0475 0.1597
4.048 0.1655
4.0485 0.1694
4.049 0.17
4.0495 0.1687
4.05 0.1706
4.0505 0.1716
4.051 0.1713
4.0515 0.1722
4.052 0.1713
4.0525 0.1652
4.053 0.1571
4.0535 0.1507
4.054 0.1458
4.0545 0.1423
4.055 0.1362
4.0555 0.1281
4.056 0.1249
4.0565 0.1194
4.057 0.1104
4.0575 0.1066
4.058 0.1095
4.0585 0.1149
4.059 0.114
4.0595 0.1146
4.06 0.1178
4.0605 0.124
4.061 0.1294
4.0615 0.1326
4.062 0.1336
4.0625 0.1375
4.063 0.141
4.0635 0.142
4.064 0.1484
4.0645 0.1603
4.065 0.1684
4.0655 0.1726
4.066 0.171
4.0665 0.1674
4.067 0.1668
4.0675 0.1716
4.068 0.1803
4.0685 0.1877
4.069 0.1909
4.0695 0.1867
4.07 0.1809
4.0705 0.1797
4.071 0.179
4.0715 0.1735
4.072 0.1677
4.0725 0.1629
4.073 0.1561
4.0735 0.1478
4.074 0.1375
4.0745 0.1288
4.075 0.1278
4.0755 0.133
4.076 0.1388
4.0765 0.1423
4.077 0.142
4.0775 0.1378
4.078 0.1346
4.0785 0.1339
4.079 0.1346
4.0795 0.1349
4.08 0.1333
4.0805 0.1343
4.081 0.1372
4.0815 0.1404
4.082 0.1458
4.0825 0.1558
4.083 0.1665
4.0835 0.1706
4.084 0.1703
4.0845 0.1684
4.085 0.1658
4.0855 0.1619
4.086 0.1584
4.0865 0.1555
4.087 0.1539
4.0875 0.1568
4.088 0.1594
4.0885 0.1565
4.089 0.1526
4.0895 0.1497
4.09 0.1471
4.0905 0.1388
4.091 0.1307
4.0915 0.1265
4.092 0.1297
4.0925 0.133
4.093 0.1326
4.0935 0.1269
4.094 0.1191
4.0945 0.1127
4.095 0.1101
4.0955 0.1127
4.096 0.1211
4.0965 0.1281
4.097 0.1339
4.0975 0.1404
4.098 0.1491
4.0985 0.1549
4.099 0.1558
4.0995 0.1565
4.1 0.1623
4.1005 0.1694
4.101 0.1735
4.1015 0.171
4.102 0.1658
4.1025 0.1697
4.103 0.1867
4.1035 0.2025
4.104 0.2038
4.1045 0.2009
4.105 0.2022
4.1055 0.1986
4.106 0.1797
4.1065 0.1558
4.107 0.1355
4.1075 0.1182
4.108 0.104
4.1085 0.09369
4.109 0.08532
4.1095 0.07984
4.11 0.07695
4.1105 0.08017
4.111 0.09562
4.1115 0.1156
4.112 0.1288
4.1125 0.1397
4.113 0.1536
4.1135 0.1652
4.114 0.1716
4.1145 0.1758
4.115 0.1793
4.1155 0.1809
4.116 0.1771
4.1165 0.1687
4.117 0.1629
4.1175 0.1658
4.118 0.1719
4.1185 0.1761
4.119 0.1774
4.1195 0.1784
4.12 0.1793
4.1205 0.1784
4.121 0.1739
4.1215 0.169
4.122 0.1639
4.1225 0.159
4.123 0.1504
4.1235 0.1394
4.124 0.1333
4.1245 0.1285
4.125 0.1227
4.1255 0.1178
4.126 0.1172
4.1265 0.1246
4.127 0.1368
4.1275 0.1452
4.128 0.1439
4.1285 0.1449
4.129 0.1529
4.1295 0.1542
4.13 0.1481
4.1305 0.1439
4.131 0.1449
4.1315 0.1462
4.132 0.1462
4.1325 0.1462
4.133 0.1478
4.1335 0.1468
4.134 0.1417
4.1345 0.1372
4.135 0.1372
4.1355 0.1391
4.136 0.1394
4.1365 0.1426
4.137 0.1513
4.1375 0.1552
4.138 0.1533
4.1385 0.1481
4.139 0.1458
4.1395 0.1478
4.14 0.15
4.1405 0.1536
4.141 0.1545
4.1415 0.1539
4.142 0.1536
4.1425 0.1542
4.143 0.1516
4.1435 0.1475
4.144 0.141
4.1445 0.1375
4.145 0.1378
4.1455 0.1384
4.146 0.1365
4.1465 0.1352
4.147 0.1465
4.1475 0.1632
4.148 0.1739
4.1485 0.1748
4.149 0.171
4.1495 0.1636
4.15 0.1568
4.1505 0.1513
4.151 0.1458
4.1515 0.1404
4.152 0.1397
4.1525 0.1475
4.153 0.1578
4.1535 0.1597
4.154 0.1555
4.1545 0.1555
4.155 0.161
4.1555 0.1619
4.156 0.1555
4.1565 0.1471
4.157 0.1449
4.1575 0.1423
4.158 0.1355
4.1585 0.1291
4.159 0.1265
4.1595 0.1259
4.16 0.1256
4.1605 0.1265
4.161 0.1326
4.1615 0.1439
4.162 0.1507
4.1625 0.1568
4.163 0.1648
4.1635 0.1729
4.164 0.1761
4.1645 0.171
4.165 0.1645
4.1655 0.161
4.166 0.1603
4.1665 0.161
4.167 0.1578
4.1675 0.1542
4.168 0.1571
4.1685 0.1587
4.169 0.1561
4.1695 0.1526
4.17 0.1497
4.1705 0.151
4.171 0.15
4.1715 0.1442
4.172 0.1439
4.1725 0.1513
4.173 0.1545
4.1735 0.1487
4.174 0.1368
4.1745 0.1259
4.175 0.1172
4.1755 0.1108
4.176 0.1062
4.1765 0.1024
4.177 0.1014
4.1775 0.1021
4.178 0.1062
4.1785 0.1137
4.179 0.1223
4.1795 0.1397
4.18 0.1619
4.1805 0.1764
4.181 0.1816
4.1815 0.1784
4.182 0.1726
4.1825 0.1713
4.183 0.1748
4.1835 0.1813
4.184 0.1848
4.1845 0.1842
4.185 0.1829
4.1855 0.1864
4.186 0.1964
4.1865 0.2086
4.187 0.2109
4.1875 0.1996
4.188 0.1813
4.1885 0.1578
4.189 0.132
4.1895 0.1098
4.19 0.09337
4.1905 0.08435
4.191 0.08274
4.1915 0.08017
4.192 0.07469
4.1925 0.06761
4.193 0.06375
4.1935 0.07115
4.194 0.08982
4.1945 0.114
4.195 0.1333
4.1955 0.1433
4.196 0.1581
4.1965 0.1809
4.197 0.199
4.1975 0.2051
4.198 0.2054
4.1985 0.208
4.199 0.2135
4.1995 0.2154
4.2 0.2144
4.2005 0.2051
4.201 0.19
4.2015 0.1806
4.202 0.1793
4.2025 0.1758
4.203 0.1694
4.2035 0.161
4.204 0.1504
4.2045 0.1362
4.205 0.1265
4.2055 0.1272
4.206 0.1323
4.2065 0.1339
4.207 0.1349
4.2075 0.1368
4.208 0.1349
4.2085 0.1288
4.209 0.1281
4.2095 0.1307
4.21 0.1359
4.2105 0.1394
4.211 0.142
4.2115 0.1407
4.212 0.1394
4.2125 0.1413
4.213 0.1475
4.2135 0.151
4.214 0.1523
4.2145 0.1533
4.215 0.1536
4.2155 0.1526
4.216 0.1526
4.2165 0.1539
4.217 0.1568
4.2175 0.1607
4.218 0.1661
4.2185 0.1658
4.219 0.1607
4.2195 0.1578
4.22 0.1561
4.2205 0.1504
4.221 0.1433
4.2215 0.1394
4.222 0.1388
4.2225 0.1359
4.223 0.1291
4.2235 0.1198
4.224 0.1127
4.2245 0.1088
4.225 0.1072
4.2255 0.1014
4.226 0.09659
4.2265 0.09304
4.227 0.09787
4.2275 0.1104
4.228 0.1249
4.2285 0.1384
4.229 0.1568
4.2295 0.1761
4.23 0.1864
4.2305 0.1874
4.231 0.1896
4.2315 0.1977
4.232 0.2028
4.2325 0.1999
4.233 0.1906
4.2335 0.1809
4.234 0.1716
4.2345 0.161
4.235 0.1523
4.2355 0.1423
4.236 0.1355
4.2365 0.1339
4.237 0.133
4.2375 0.1304
4.238 0.1259
4.2385 0.1291
4.239 0.1394
4.2395 0.152
4.24 0.1607
4.2405 0.1652
4.241 0.1677
4.2415 0.1687
4.242 0.1694
4.2425 0.1716
4.243 0.1745
4.2435 0.1758
4.244 0.1748
4.2445 0.1732
4.245 0.1648
4.2455 0.1542
4.246 0.1481
4.2465 0.1475
4.247 0.1417
4.2475 0.1359
4.248 0.131
4.2485 0.1285
4.249 0.1269
4.2495 0.1281
4.25 0.1323
4.2505 0.1394
4.251 0.1484
4.2515 0.1549
4.252 0.1565
4.2525 0.1542
4.253 0.1513
4.2535 0.1497
4.254 0.1484
4.2545 0.1471
4.255 0.1436
4.2555 0.1394
4.256 0.1362
4.2565 0.1349
4.257 0.1339
4.2575 0.1336
4.258 0.1323
4.2585 0.1314
4.259 0.1349
4.2595 0.1423
4.26 0.15
4.2605 0.1536
4.261 0.1558
4.2615 0.1613
4.262 0.1661
4.2625 0.1674
4.263 0.1603
4.2635 0.152
4.264 0.1491
4.2645 0.1513
4.265 0.1523
4.2655 0.1507
4.266 0.1462
4.2665 0.142
4.267 0.1384
4.2675 0.1362
4.268 0.1381
4.2685 0.1433
4.269 0.1417
4.2695 0.1343
4.27 0.1294
4.2705 0.1326
4.271 0.142
4.2715 0.1504
4.272 0.1581
4.2725 0.1619
4.273 0.1636
4.2735 0.1613
4.274 0.1587
4.2745 0.1561
4.275 0.1571
4.2755 0.1603
4.276 0.1629
4.2765 0.1613
4.277 0.1594
4.2775 0.1555
4.278 0.1491
4.2785 0.1397
4.279 0.1297
4.2795 0.1256
4.28 0.1294
4.2805 0.1417
4.281 0.1539
4.2815 0.1597
4.282 0.1594
4.2825 0.159
4.283 0.1578
4.2835 0.1565
4.284 0.1642
4.2845 0.1742
4.285 0.1809
4.2855 0.1793
4.286 0.17
4.2865 0.1549
4.287 0.1375
4.2875 0.1243
4.288 0.1188
4.2885 0.1204
4.289 0.1223
4.2895 0.1236
4.29 0.1285
4.2905 0.1326
4.291 0.1343
4.2915 0.1368
4.292 0.1436
4.2925 0.152
4.293 0.16
4.2935 0.1661
4.294 0.1694
4.2945 0.1668
4.295 0.1603
4.2955 0.1568
4.296 0.1581
4.2965 0.1616
4.297 0.1607
4.2975 0.1558
4.298 0.152
4.2985 0.1594
4.299 0.1703
4.2995 0.1739
4.3 0.1681
4.3005 0.1607
4.301 0.1545
4.3015 0.15
4.302 0.1468
4.3025 0.1446
4.303 0.1391
4.3035 0.1336
4.304 0.131
4.3045 0.1304
4.305 0.1262
4.3055 0.1185
4.306 0.1149
4.3065 0.124
4.307 0.1362
4.3075 0.1423
4.308 0.141
4.3085 0.1401
4.309 0.1381
4.3095 0.1391
4.31 0.1449
4.3105 0.1513
4.311 0.1533
4.3115 0.1536
4.312 0.1529
4.3125 0.1481
4.313 0.1413
4.3135 0.1378
4.314 0.1394
4.3145 0.1458
4.315 0.151
4.3155 0.1539
4.316 0.1594
4.3165 0.1661
4.317 0.1674
4.3175 0.1619
4.318 0.1594
4.3185 0.1658
4.319 0.1713
4.3195 0.1742
4.32 0.1716
4.3205 0.1703
4.321 0.1726
4.3215 0.1735
4.322 0.169
4.3225 0.1626
4.323 0.1574
4.3235 0.1545
4.324 0.1529
4.3245 0.1526
4.325 0.1491
4.3255 0.1404
4.326 0.1317
4.3265 0.1278
4.327 0.1246
4.3275 0.1185
4.328 0.1159
4.3285 0.122
4.329 0.1365
4.3295 0.1446
4.33 0.1413
4.3305 0.1336
4.331 0.1275
4.3315 0.1314
4.332 0.1397
4.3325 0.1426
4.333 0.1417
4.3335 0.1462
4.334 0.1552
4.3345 0.1616
4.335 0.161
4.3355 0.1581
4.336 0.1555
4.3365 0.1536
4.337 0.1487
4.3375 0.1442
4.338 0.1413
4.3385 0.1407
4.339 0.1436
4.3395 0.1481
4.34 0.1504
4.3405 0.1439
4.341 0.1407
4.3415 0.1468
4.342 0.1565
4.3425 0.1632
4.343 0.1655
4.3435 0.1629
4.344 0.1584
4.3445 0.159
4.345 0.1642
4.3455 0.1684
4.346 0.171
4.3465 0.1681
4.347 0.1607
4.3475 0.1571
4.348 0.1571
4.3485 0.159
4.349 0.1623
4.3495 0.1652
4.35 0.1661
4.3505 0.1626
4.351 0.1558
4.3515 0.1471
4.352 0.1394
4.3525 0.1368
4.353 0.1352
4.3535 0.133
4.354 0.1285
4.3545 0.123
4.355 0.1207
4.3555 0.1233
4.356 0.1291
4.3565 0.1339
4.357 0.1362
4.3575 0.1359
4.358 0.1317
4.3585 0.1246
4.359 0.1233
4.3595 0.1336
4.36 0.1507
4.3605 0.1626
4.361 0.1626
4.3615 0.1549
4.362 0.1507
4.3625 0.1523
4.363 0.1568
4.3635 0.1584
4.364 0.1568
4.3645 0.1533
4.365 0.1504
4.3655 0.1516
4.366 0.161
4.3665 0.1703
4.367 0.1742
4.3675 0.1703
4.368 0.1674
4.3685 0.1684
4.369 0.1677
4.3695 0.1636
4.37 0.1571
4.3705 0.1497
4.371 0.1429
4.3715 0.1391
4.372 0.1388
4.3725 0.1349
4.373 0.1323
4.3735 0.1355
4.374 0.1449
4.3745 0.151
4.375 0.1565
4.3755 0.1626
4.376 0.1658
4.3765 0.1645
4.377 0.1619
4.3775 0.1613
4.378 0.1565
4.3785 0.1446
4.379 0.1391
4.3795 0.1397
4.38 0.1413
4.3805 0.141
4.381 0.1352
4.3815 0.1355
4.382 0.1417
4.3825 0.1449
4.383 0.1378
4.3835 0.1285
4.384 0.1259
4.3845 0.1278
4.385 0.124
4.3855 0.1143
4.386 0.1133
4.3865 0.1191
4.387 0.1233
4.3875 0.1259
4.388 0.1365
4.3885 0.1446
4.389 0.1475
4.3895 0.1487
4.39 0.1549
4.3905 0.1655
4.391 0.1784
4.3915 0.1883
4.392 0.1935
4.3925 0.1932
4.393 0.1919
4.3935 0.1922
4.394 0.1935
4.3945 0.1954
4.395 0.1954
4.3955 0.1912
4.396 0.1819
4.3965 0.1694
4.397 0.1581
4.3975 0.1504
4.398 0.1433
4.3985 0.1378
4.399 0.1349
4.3995 0.1368
4.4 0.1384
4.4005 0.1336
4.401 0.1272
4.4015 0.1265
4.402 0.1346
4.4025 0.1449
4.403 0.1497
4.4035 0.1507
4.404 0.1462
4.4045 0.1378
4.405 0.1297
4.4055 0.1288
4.406 0.1346
4.4065 0.1368
4.407 0.133
4.4075 0.1278
4.408 0.124
4.4085 0.1256
4.409 0.1314
4.4095 0.1355
4.41 0.1349
4.4105 0.1372
4.411 0.1455
4.4115 0.1536
4.412 0.1584
4.4125 0.1616
4.413 0.1623
4.4135 0.1584
4.414 0.1545
4.4145 0.15
4.415 0.1484
4.4155 0.1468
4.416 0.1449
4.4165 0.1449
4.417 0.1455
4.4175 0.1452
4.418 0.1426
4.4185 0.1391
4.419 0.1423
4.4195 0.1542
4.42 0.16
4.4205 0.1561
4.421 0.152
4.4215 0.1536
4.422 0.1549
4.4225 0.1536
4.423 0.1533
4.4235 0.1545
4.424 0.1552
4.4245 0.1533
4.425 0.1529
4.4255 0.152
4.426 0.1487
4.4265 0.1446
4.427 0.1449
4.4275 0.1429
4.428 0.141
4.4285 0.1436
4.429 0.1526
4.4295 0.161
4.43 0.1629
4.4305 0.159
4.431 0.1552
4.4315 0.1565
4.432 0.1584
4.4325 0.1597
4.433 0.16
4.4335 0.1607
4.434 0.1594
4.4345 0.16
4.435 0.1639
4.4355 0.1677
4.436 0.1626
4.4365 0.1549
4.437 0.15
4.4375 0.1465
4.438 0.1452
4.4385 0.1449
4.439 0.1458
4.4395 0.1429
4.44 0.1359
4.4405 0.1301
4.441 0.1262
4.4415 0.122
4.442 0.1185
4.4425 0.1188
4.443 0.1236
4.4435 0.1307
4.444 0.1346
4.4445 0.1355
4.445 0.133
4.4455 0.1326
4.446 0.1381
4.4465 0.1497
4.447 0.1607
4.4475 0.1671
4.448 0.1681
4.4485 0.1632
4.449 0.1578
4.4495 0.1558
4.45 0.1561
4.4505 0.1561
4.451 0.1607
4.4515 0.1652
4.452 0.169
4.4525 0.1674
4.453 0.1623
4.4535 0.1597
4.454 0.1603
4.4545 0.1607
4.455 0.1613
4.4555 0.1613
4.456 0.159
4.4565 0.1558
4.457 0.1542
4.4575 0.151
4.458 0.1487
4.4585 0.1513
4.459 0.1568
4.4595 0.1555
4.46 0.1462
4.4605 0.1349
4.461 0.1275
4.4615 0.1243
4.462 0.1281
4.4625 0.1343
4.463 0.1336
4.4635 0.1278
4.464 0.1233
4.4645 0.1252
4.465 0.1307
4.4655 0.1359
4.466 0.1404
4.4665 0.1407
4.467 0.1391
4.4675 0.1391
4.468 0.1449
4.4685 0.1494
4.469 0.1484
4.4695 0.1468
4.47 0.1462
4.4705 0.1529
4.471 0.1764
4.4715 0.208
4.472 0.2212
4.4725 0.2128
4.473 0.1925
4.4735 0.1706
4.474 0.151
4.4745 0.132
4.475 0.1169
4.4755 0.1095
4.476 0.104
4.4765 0.09562
4.477 0.09111
4.4775 0.09433
4.478 0.1021
4.4785 0.1043
4.479 0.112
4.4795 0.1339
4.48 0.159
4.4805 0.1732
4.481 0.1726
4.4815 0.171
4.482 0.1726
4.4825 0.1774
4.483 0.1809
4.4835 0.1813
4.484 0.1832
4.4845 0.1877
4.485 0.1858
4.4855 0.1764
4.486 0.1703
4.4865 0.1742
4.487 0.1787
4.4875 0.1764
4.488 0.169
4.4885 0.161
4.489 0.1565
4.4895 0.1536
4.49 0.1533
4.4905 0.1523
4.491 0.15
4.4915 0.1475
4.492 0.1391
4.4925 0.1323
4.493 0.1375
4.4935 0.1584
4.494 0.1838
4.4945 0.1912
